36546.62109375,36499.21484375,36507.4453125,36488.37890625,36432.17578125,36415.515625,36383.6328125,36383.390625,36381.44921875,36385.08984375,36404.9609375,36357.15234375,36307.5,36291.86328125,36278.29296875,36216.71484375,36209.44921875,36224.69140625,36255.71875,36274.93359375,36252.140625,36214.23828125,36212.625,36214.8828125,36210.36328125,36205.30859375,36230.60546875,36257.80859375,36277.9140625,36305.97265625,36324.44140625,36344.15625,36367.21875,36363.78515625,36391.3046875,36420.01171875,36452.19921875,36462.73828125,36518.94140625,36498.1015625,36524.890625,36527.50390625,36513.8359375,36513.56640625,36570.8046875,36554.33984375,36563.96484375,36583.01953125,36590.375,36570.37890625,36564.33203125,36536.859375,36558.19921875,36572.4296875,36604.3359375,36599.10546875,36601.05078125,36598.10546875,36611.9453125,36575.71484375,36605.8125,36596.76171875,36555.05859375,36535.07421875,36505.515625,36454.98046875,36452.734375,36487.890625,36437.1015625,36433.97265625,36417.30078125,36410.15234375,36399.0390625,36384.74609375,36402.76171875,36405.5,36400.7109375,36378.234375,36367.05859375,36367.33984375,36357.08984375,36360.1328125,36350.99609375,36347.1484375,36344.53515625,36327.43359375,36328.8125,36318.2734375,36316.4765625,36285.98828125,36300.20703125,36289.75,36287.69921875,36275.984375,36251.69921875,36260.51953125,36256.76953125,36243.75,36239.19140625,36206.75,36202.0078125,36209.77734375,36181.91796875,36152.02734375,36135.79296875,36131.93359375,36132.41015625,36118.1171875,36108.5390625,36110.32421875,36108.8203125,36115.90625,36109.25,36122.52734375,36103.0078125,36116.76171875,36115.07421875,36127.47265625,36169.4453125,36211.6953125,36225.265625,36216.41015625,36217.44921875,36198.34375,36170.32421875,36127.66796875,36104.81640625,36037.77734375,35997.08984375,35941.53515625,35925.90234375,35921.56640625,35902.4375,35883.00390625,35870.1875,35867.20703125,35864.203125,35862.7734375,35839.91015625,35853.734375,35845.0859375,35833.60546875,35832.140625,35865.5234375,35847.3125,35935.4296875,36173.40234375,36531.484375,36841.59765625,37229.94921875,37308.17578125,36832.5234375,36345.09765625,36130.015625,36067.90234375,35914.91015625,35825.37109375,35762.9921875,35743.5546875,35706.75390625,35693.109375,35691.7421875,35686.74609375,35654.3515625,35629.640625,35625.5,35627.234375,35637.359375,35601.82421875,35610.4609375,35591.28515625,35602.58203125,35616.2265625,35621.22265625,35589.5234375,35590.5390625,35605.5625,35610.5,35613.94140625,35607.71484375,35617.828125,35612.26953125,35594.51953125,35591.17578125,35597.5625,35600.96875,35591.19921875,35598.46484375,35596.98828125,35593.32421875,35604.78125,35578.38671875,35574.9765625,35589.37890625,35576.00390625,35573.4375,35555.51953125,35569.8359375,35590.78515625,35587.3515625,35574.328125,35588.14453125,35565.484375,35585.62890625,35605.4921875,35588.265625,35590.85546875,35588.20703125,35579.71484375,35558.890625,35582.07421875,35591.02734375,35582.48828125,35585.00390625,35086.0234375,35099.88671875,35109.3046875,35107.60546875,35099.375,35114.203125,35146.76953125,35188.15234375,35172.5546875,35158.6171875,35128.3125,35081.22265625,35060.2109375,35020.9296875,34951.9765625,34922.734375,34890.2890625,34867.36328125,34864.37109375,34830.328125,34824.94140625,34785.73046875,34811.015625,34782.625,34770.81640625,34769.91015625,34773.07421875,34782.125,34783.9453125,34785.03125,34833.234375,34842.4921875,34960.6484375,35228.0703125,35587.69140625,35943.734375,36403.32421875,36455.54296875,36032.09765625,35554.015625,35271.93359375,35114.4609375,34936.265625,34956.99609375,34924.58984375,34871.55078125,34827.234375,34814.4453125,34798.23828125,34783.1015625,34813.88671875,35108.83984375,35282.625,35437.66796875,35375.7890625,35407.81640625,35223.52734375,35111.6484375,35034.5859375,35404.3828125,35601.12890625,35226.88671875,34806.99609375,34547.68359375,34347.3203125,34478.0078125,34475.1640625,34242.46875,34304.73828125,34568.86328125,35005.61328125,35014.50390625,35092.3125,35296.8671875,35091.51953125,34604.10546875,34490.87109375,34421.6015625,34513.32421875,34799.875,35004.51171875,35051.0625,34980.14453125,34901.74609375,34955.078125,35079.15625,35089.93359375,35047.08203125,35004,35011.8671875,35177.29296875,35151.27734375,35096.90625,35016.38671875,35018.15625,35091.99609375,35139.90234375,35070.33984375,34883.546875,34770.14453125,34898.375,34873.73828125,34630.3046875,34674.7421875,34725.1171875,34759.67578125,34667.6484375,34641.0078125,34635.375,34625.61328125,34663.25,34696.87890625,34684.30859375,34599.62109375,34600.890625,34592.37890625,34630.1953125,34542.234375,34406.55078125,34317.65234375,34307.5234375,34331.94140625,34327.36328125,34229.1171875,34018.8828125,33999.53515625,33939.328125,33935.8203125,33820.78125,33734.984375,33874.18359375,33854.7265625,33825.0703125,33735.4609375,33724.6484375,33833.7890625,33014.37109375,33018.66015625,33047.1328125,33072.7578125,33082.37109375,33078.15625,33101.8203125,33114.86328125,33131.28125,33138.609375,33142.578125,33139.2578125,33139.5625,33136.703125,33138.4375,33140.5390625,33156.58984375,33161.35546875,33165.21484375,33173.66796875,33202.71484375,33212.7421875,33207.46484375,33195.421875,33181.08203125,33173.7265625,33171.25,33129.81640625,33093.890625,33072.30859375,33040.94921875,33021.73828125,33009.66796875,32997.96484375,32970.32421875,32966.59765625,32959.890625,32927.875,32938.796875,32950.48828125,32932.99609375,32918.1171875,32917.08984375,32907.68359375,32889.77734375,32882.12109375,32868.8046875,32871.93359375,32845.44921875,32847.44140625,32859.4375,32873.421875,32845.27734375,32821.2890625,32841.54296875,32836.59375,32834.82421875,32811.625,32864.75,32855.89453125,32861.1953125,32896.7890625,32872.8359375,32882.27734375,32887.25,32910.875,32943.25390625,32985.7890625,33016.41015625,33005.9921875,32999.2265625,33000.765625,32996.328125,32982.453125,32959.79296875,32896.58203125,32859.27734375,32830.25390625,32792.71875,32786.21875,32752.6640625,32781.61328125,32742.501953125,32752.53125,32772.48828125,32754.19140625,32739.509765625,32744.126953125,32784.49609375,32768.93359375,32755.90234375,32756.255859375,32792.2421875,32794.24609375,32921.07421875,33192.4765625,33592.7890625,33892.84765625,34305.375,34217.9140625,33710.22265625,33205.16796875,33088.24609375,33023.16796875,32901.95703125,32847.63671875,32783.4453125,32779.5859375,32765.650390625,32752.3359375,32733.5,32723.947265625,32713.076171875,32700.15234375,32705.013671875,32691.919921875,32692.322265625,32694.607421875,32671.01953125,32660.306640625,32666.755859375,32672.15625,32691.810546875,32691.30859375,32678.154296875,32684.615234375,32688.2421875,32703.572265625,32680.107421875,32695.3515625,32705.869140625,32688.267578125,32674.0859375,32695.62109375,32693.99609375,32689.94140625,32701.765625,32727.416015625,32723.091796875,32702.1796875,32675.759765625,32681.671875,32723.97265625,32725.1328125,32721.724609375,32720.748046875,32723.77734375,32734.916015625,32731.484375,32734.453125,32748.01171875,32745.703125,32747.375,32732.583984375,32757.9296875,32775.95703125,32767.775390625,32745.556640625,32688.755859375,32711.671875,32726.29296875,32726.169921875,32714.28515625,32696.890625,32682.869140625,32652.4765625,32612.021484375,32566.03125,32505.384765625,32480.306640625,32479.3046875,32477.5703125,32473.02734375,32458.576171875,32474.833984375,32475.0546875,32467.212890625,32454.94921875,32418.376953125,32414.6875,32413.9921875,32425.388671875,32449.060546875,32481.150390625,32515.0703125,32659.220703125,32939.8828125,33326.6953125,33649.0859375,34090.5390625,34054.80859375,33539.84765625,33082.1875,32874.265625,32758.796875,32652.416015625,32566.86328125,32529.998046875,32510.94140625,32521.837890625,32509.720703125,32494.990234375,32480.24609375,32497.994140625,32491.470703125,32485.779296875,32499.728515625,32496.22265625,32490.99609375,32498.41015625,32500.828125,32511.41796875,32522.216796875,32534.859375,32520.568359375,32506.60546875,32491.470703125,32492.8515625,32505.763671875,32504.064453125,32525.2578125,32509.66015625,32515.05859375,32529.55859375,32545.681640625,32553.072265625,32545.0703125,32521.484375,32685.8359375,32694.412109375,32702.1796875,32709.228515625,32725.279296875,32736.89453125,32742.66015625,32751.931640625,32742.001953125,32756.31640625,32754.77734375,32744.982421875,32735.0390625,32728.41796875,32727.294921875,32711.451171875,32701.056640625,32692.896484375,32701.521484375,32700.62890625,32714.75,32722.859375,32726.390625,32712.099609375,32717.107421875,32729.96875,32747.8515625,32791.60546875,32807.83984375,32822.86328125,32797.921875,32789.06640625,32762.9375,32758.345703125,32741.732421875,32694.888671875,32642.0703125,32610.04296875,32594.359375,32576.244140625,32579.333984375,32566.1171875,32573.068359375,32570.625,32576.51171875,32581.60546875,32589.998046875,32603.177734375,32610.71484375,32633.361328125,32647.396484375,32677.84765625,32725.181640625,32766.908203125,32921,33237.37890625,33627.55078125,33949.91796875,34436.953125,34322.328125,33811.9609375,33348.79296875,33145.5234375,33027.76953125,32898.20703125,32839.21875,32787.3046875,32763.853515625,32756.255859375,32738.91015625,32722.103515625,32702.998046875,32698.662109375,32700.080078125,32694.65625,32695.73046875,32691.6015625,32676.455078125,32672.595703125,32675.05078125,32674.87890625,32666.76953125,32661.1875,32655.115234375,32646.02734375,32656.77734375,32664.791015625,32655.873046875,32637.685546875,32650.70703125,32664.77734375,32670.689453125,32657.205078125,32655.82421875,32675.3203125,32677.62890625,32684.75,32675.6484375,32672.509765625,32658.267578125,32669.908203125,32694.97265625,32706.6640625,32697.318359375,32671.97265625,32690.564453125,32711.658203125,32715.25,32711.5859375,32720.173828125,32717.802734375,32731.375,32725.31640625,32746.814453125,32753.71484375,32762.998046875,32773.296875,32765.8203125,32761.09375,32750.076171875,32755.5234375,32776.10546875,32785.15625,32780.125,32492.65625,32480.857421875,32472.025390625,32481.724609375,32486.072265625,32501.98828125,32529.59375,32536.056640625,32520.884765625,32527.126953125,32538.462890625,32552.15625,32562.587890625,32622.427734375,32664.607421875,32653.294921875,32642.998046875,32637.392578125,32610.017578125,32590.388671875,32584.341796875,32551.435546875,32497.212890625,32441.23046875,32424.69140625,32408.3359375,32412.048828125,32386.935546875,32396.671875,32394.412109375,32383.369140625,32387.802734375,32394.912109375,32394.97265625,32373.8046875,32381.744140625,32380.328125,32403.267578125,32436.98046875,32509.84375,32696.37890625,33014.8125,33371.52734375,33671.9765625,34033.96875,33706.1328125,33182.09375,32806.53125,32774.50390625,32666.365234375,32565.93359375,32501.181640625,32478.98828125,32460.470703125,32444.138671875,32425.90234375,32423.373046875,32417.828125,32408.373046875,32391.259765625,32384.17578125,32400.17578125,32400.005859375,32404,32403.8046875,32388.03515625,32387.36328125,32393.34765625,32408.591796875,32415.884765625,32415.140625,32422.7734375,32428.625,32421.796875,32423.775390625,32422.041015625,32430.7265625,32440.033203125,32445.8359375,32447.021484375,32452.701171875,32453.947265625,32446.3125,32457.8671875,32459.712890625,32462.0703125,32465.123046875,32478.90234375,32489.56640625,32484.4609375,32503.515625,32500.474609375,32508.646484375,32498.849609375,32514.349609375,32524.9765625,32527.9453125,32550.798828125,32551.88671875,32559.0703125,32562.197265625,32566.49609375,32574.716796875,32579.1875,32578.076171875,32573.62890625,32583.583984375,32580.1640625,32607.28125,32601.11328125,32606.0234375,32595.71484375,32579.408203125,32571.431640625,32565.310546875,32550.775390625,32531.8046875,32500.951171875,32508.388671875,32508.779296875,32496.89453125,32490.310546875,32416.60546875,32412.525390625,32407.00390625,32411.462890625,32417.83984375,32416.703125,32415.603515625,32416.912109375,32416.177734375,32417.86328125,32422.08984375,32441.072265625,32466.50390625,32526.41796875,32695.193359375,33002.33984375,33382.17578125,33707.828125,34162.54296875,33988.3828125,33500.6875,33043.84765625,32871.61328125,32726.623046875,32611.740234375,32546.109375,32494.1953125,32503.4296875,32502.28125,32475.029296875,32466.150390625,32455.15625,32451.552734375,32438.666015625,32431.337890625,32438.703125,32448.609375,32443.650390625,32445.568359375,32448.560546875,32432.228515625,32445.861328125,32451.087890625,32447.86328125,32447.021484375,32463.583984375,32470.046875,32475.65234375,32470.265625,32481.40625,32480.185546875,32471.072265625,32480.220703125,32494.01171875,32500.1328125,32498.23828125,32504.98046875,32509.07421875,32511.529296875,32505.43359375,32512.626953125,32538.646484375,32549.98046875,32549.11328125,32532.5390625,32558.921875,32560.791015625,32569.68359375,32588.958984375,32588.861328125,32601.150390625,32595.51953125,32609.029296875,32602.9453125,32600.34375,32611.97265625,32615.404296875,32623.576171875,32632.494140625,32633.849609375,32643.3046875,32640.470703125,32645.6484375,32641.251953125,32630.9296875,32635.888671875,32622.671875,32617.677734375,32602.93359375,32593.4296875,32577.453125,32562.16015625,32558.8125,32531.79296875,32514.802734375,32517.94140625,32498.15234375,32508.6328125,32510.318359375,32508.107421875,32513.775390625,32493.107421875,32486.755859375,32495.318359375,32500.974609375,32504.08984375,32501.365234375,32495.759765625,32493.71875,32491.447265625,32506.32421875,32504.76171875,32504.224609375,32505.189453125,32505.8125,32499.705078125,32497.201171875,32499.66796875,32504.701171875,32503.369140625,32509.916015625,32511.7734375,32495.662109375,32497.201171875,32499.068359375,32492.9609375,32498.642578125,32501.146484375,32495.599609375,32498.775390625,32503.24609375,32487,32496.95703125,32498.6171875,32506.728515625,32491.556640625,32485.279296875,32490.32421875,32494.390625,32501.68359375,32491.2265625,32493.267578125,32495.685546875,32495.576171875,32485.400390625,32487.294921875,32483.287109375,32481.41796875,32492.6328125,32485.73046875,32478.14453125,32488.63671875,32482.994140625,32492.36328125,32497.884765625,32495.794921875,32485.865234375,32481.087890625,32488.78515625,32494.1953125,32493.353515625,32526.138671875,32545.42578125,32579.029296875,32572.3828125,32580.34765625,32589.326171875,32570.013671875,32595.494140625,32639.345703125,32671.375,32679.30078125,32692.15234375,32675.89453125,32668.455078125,32644.037109375,32633.482421875,32604.19140625,32581.349609375,32513.41015625,32491.837890625,32477.498046875,32474.78515625,32467.236328125,32449.427734375,32453.568359375,32460.5546875,32469.36328125,32464.953125,32471.90234375,32463.009765625,32459.724609375,32471.916015625,32503.8203125,32537.705078125,32622.025390625,32844.41015625,33189.66796875,33559.0859375,33897.1015625,34214.80078125,33831.015625,33405.203125,32994.92578125,32889.42578125,32742.66015625,32654.138671875,32583.23046875,32545.974609375,32536.19140625,32532.16015625,32520.04296875,32515.03515625,32500.767578125,32498.642578125,32483.21484375,32485.681640625,32487.232421875,32473.8828125,32495.55078125,32494.671875,32498.837890625,32484.01953125,32496.48046875,32497.67578125,32507.9609375,32514.30078125,32528.5078125,32514.802734375,32519.322265625,32527.15234375,32529.66796875,32547.794921875,32539.40234375,32544.509765625,32549.87109375,32557.75,32563.6015625,32565.99609375,32573.677734375,32574.533203125,32575.8046875,32586.40625,32590.888671875,32599.3671875,32609.505859375,32601.466796875,32608.099609375,32617.126953125,32639.7734375,32651.732421875,32658.03515625,32669.615234375,32667.8203125,32665.181640625,32678.69140625,32671.38671875,32691.67578125,32704.892578125,32708.751953125,32559.265625,32562.57421875,32563.357421875,32556.3203125,32550.798828125,32554.244140625,32550.103515625,32546.658203125,32537.75390625,32537.9609375,32540.318359375,32544.6796875,32535.8125,32529.7890625,32543.447265625,32533.662109375,32542.95703125,32535.45703125,32540.74609375,32529.66796875,32533.4296875,32538.583984375,32533.283203125,32520.287109375,32545.83984375,32564.810546875,32559.630859375,32589.740234375,32594.064453125,32605.388671875,32615.24609375,32597.716796875,32617.1875,32654.00390625,32711.87890625,32710.853515625,32724.4609375,32720.625,32700.45703125,32686.5078125,32675.90625,32641.521484375,32607.123046875,32557.76171875,32543.7265625,32519.9453125,32505.45703125,32498.775390625,32493.255859375,32502.294921875,32502.232421875,32498.470703125,32483.287109375,32500.755859375,32494.060546875,32490.103515625,32509.0859375,32520.53125,32566.984375,32657.974609375,32876.74609375,33201.62890625,33536.83203125,33881.390625,34141.6796875,33720.23828125,33257.5859375,32918.9609375,32867.5234375,32742.478515625,32662.53125,32602.640625,32566.484375,32554.623046875,32524.916015625,32532.6484375,32511.919921875,32515.302734375,32497.505859375,32502.09765625,32501,32484.66796875,32469.47265625,32495.759765625,32488.650390625,32497.56640625,32488.91796875,32479.40234375,32496.150390625,32493.853515625,32508.962890625,32493.486328125,32500.73046875,32500.767578125,32496.662109375,32510.07421875,32510.234375,32519.505859375,32519.064453125,32519.859375,32530.55859375,32518.259765625,32527.0546875,32538.669921875,32534.064453125,32539.109375,32550.763671875,32552.595703125,32559.97265625,32553.31640625,32550.640625,32572.689453125,32566.99609375,32583.73046875,32603.97265625,32603.201171875,32613.609375,32617.28515625,32622.318359375,32613.572265625,32610.275390625,32623.61328125,32621.59765625,32656.703125,32656.556640625,32665.779296875,32676.78515625,32682.6484375,32552.05859375,32557.298828125,32561.20703125,32555.4296875,32563.392578125,32559.326171875,32573.04296875,32582.09375,32597.66796875,32611.533203125,32624.00390625,32634.337890625,32650.42578125,32649.55859375,32649.119140625,32661.00390625,32698.857421875,32739.765625,32760.4453125,32775.2734375,32758.234375,32743.455078125,32731.69140625,32705.478515625,32664.97265625,32634.8515625,32588.751953125,32568.1328125,32548.087890625,32550.482421875,32547.869140625,32540.673828125,32548.966796875,32539.07421875,32534.30859375,32538.81640625,32529.900390625,32540.478515625,32546.525390625,32553.451171875,32578.7109375,32598.046875,32695.73046875,32920.44921875,33264.53515625,33589.796875,33931.42578125,34144.2109375,33709.28125,33235.671875,32958.96484375,32920.12109375,32785.47265625,32713.455078125,32657.94921875,32626.142578125,32611.044921875,32615.171875,32591.755859375,32584.353515625,32574.8515625,32564.2109375,32564.1875,32561.830078125,32561.916015625,32554.84375,32557.115234375,32560.486328125,32569.611328125,32581.947265625,32571.931640625,32565.970703125,32577.416015625,32582.265625,32584.537109375,32581.044921875,32588.361328125,32590.083984375,32601.50390625,32610.470703125,32612.7421875,32602.482421875,32619.75390625,32622.0625,32629.78125,32631.6875,32638.796875,32636,32639.994140625,32637.587890625,32652.685546875,32668.541015625,32669.015625,32672.5703125,32688.79296875,32697.318359375,32701.166015625,32709.4609375,32714.701171875,32718.328125,32731.60546875,32729.7734375,32740.095703125,32731.765625,32740.865234375,32756.927734375,32754.64453125,32765.099609375,32766.431640625,32765.013671875,32777.0703125,32787.37890625,32781.91796875,32786.6484375,32781.7109375,32772.953125,32758.759765625,32741.708984375,32729.73828125,32713.857421875,32698.9921875,32700.689453125,32679.142578125,32668.2109375,32668.564453125,32654.443359375,32655.873046875,32649.19140625,32653.98046875,32643.583984375,32626.154296875,32628.31640625,32631.40625,32639.08984375,32631.69921875,32624.712890625,32631.11328125,32629.8671875,32634.642578125,32626.875,32633.984375,32623.58984375,32622.123046875,32634.86328125,32641.166015625,32642.693359375,32631.541015625,32636.29296875,32645.208984375,32643.376953125,32647.310546875,32641.47265625,32634.203125,32646.00390625,32641.10546875,32631.76171875,32631.138671875,32626.619140625,32633.7890625,32620.53515625,32636.146484375,32633.763671875,32623.80859375,32633.763671875,32637.0625,32629.537109375,32629.68359375,32633.60546875,32622.85546875,32621.720703125,32618.849609375,32616.748046875,32622.5625,32614.94140625,32612.65625,32603.921875,32606.634765625,32605.779296875,32604.4609375,32613.646484375,32608.087890625,32607.37890625,32597.607421875,32594.041015625,32587.1875,32605.205078125,32607.232421875,32613.169921875,32638.294921875,32654.015625,32674.123046875,32676.173828125,32676.638671875,32691.236328125,32682.63671875,32688.353515625,32727.427734375,32750.294921875,32777.328125,32790.7890625,32801.68359375,32791.9375,32763.33984375,32755.046875,32733.51171875,32696.646484375,32645.001953125,32605.583984375,32586.8828125,32577.990234375,32582.521484375,32575.1328125,32562.880859375,32560.876953125,32554.8671875,32561.744140625,32568.755859375,32577.0859375,32570.05078125,32571.236328125,32588.740234375,32618.59375,32682.85546875,32843.73828125,33152.83984375,33545.76171875,33857.68359375,34304.32421875,34147.8984375,33632.36328125,33181.2421875,33018.25390625,32885.34375,32771.33984375,32717.193359375,32663.53125,32647.640625,32632.56640625,32614.990234375,32611.765625,32605.669921875,32598.353515625,32586.1015625,32590.15625,32583.583984375,32577.697265625,32578.369140625,32593.8828125,32600.380859375,32589.9609375,32599.109375,32601.173828125,32597.900390625,32592.9296875,32591.109375,32601.125,32610.04296875,32604.814453125,32610.677734375,32617.970703125,32611.619140625,32619.607421875,32623.076171875,32634.021484375,32615.564453125,32632.896484375,32629.96484375,32635.90234375,32637.18359375,32618.5078125,32646.041015625,32624.603515625,32631.08984375,32658.279296875,32670.591796875,32681.01171875,32712.611328125,32724.021484375,32707.65234375,32735.41796875,32751.1015625,32748.40234375,32743.78515625,32757.0859375,32765.869140625,32771.98828125,32769.9140625,32772.50390625,32771.33984375,32781.91796875,32787.57421875,32790.1875,32796.30859375,32795.33203125,32795.94140625,32792.6328125,32796.24609375,32784.203125,32771.85546875,32754.619140625,32738.875,32732.8515625,32729.884765625,32702.33984375,32690.685546875,32689.537109375,32689.623046875,32679.986328125,32670.54296875,32672.33984375,32664.021484375,32662.333984375,32654.224609375,32649.119140625,32644.85546875,32645.013671875,32658.12109375,32651.76953125,32656.484375,32651.072265625,32643.0234375,32648.482421875,32646.564453125,32655.15234375,32649.484375,32644.26953125,32652.85546875,32650.6328125,32699.26171875,32740.302734375,32754.19140625,32776.1796875,32782.04296875,32753.826171875,32747.033203125,32745.640625,32713.759765625,32676.89453125,32645.197265625,32603.849609375,32577.5390625,32572.25,32562.197265625,32567.986328125,32566.068359375,32559.447265625,32562.697265625,32566.740234375,32566.2265625,32564.359375,32554.892578125,32565.763671875,32598.474609375,32633.923828125,32721.259765625,32923.6640625,33273.5,33614.37109375,33967.5546875,34291.83984375,33923.203125,33457.6640625,33075.7890625,32961.9921875,32816.96484375,32722.34765625,32675.759765625,32637.07421875,32635.302734375,32630.90625,32604.912109375,32592.623046875,32572.580078125,32575.2421875,32569.439453125,32567.6328125,32560.15625,32560.876953125,32567.83984375,32570.41796875,32583.71875,32584.037109375,32570.490234375,32582.400390625,32570.369140625,32558.7890625,32565.8125,32576.98828125,32583.291015625,32594.98046875,32598.865234375,32585.685546875,32585.466796875,32593.259765625,32596.421875,32600.001953125,32592.28125,32597.47265625,32608.80859375,32620.44921875,32615.91796875,32622.05078125,32638.52734375,32630.478515625,32641.142578125,32641.3984375,32648.53125,32648.447265625,32656.556640625,32660.80859375,32672.08203125,32675.197265625,32674.85546875,32691.6875,32695.853515625,32697.220703125,32714.17578125,32704.5859375,32722.23828125,32713.9921875,32729.712890625,32738.62890625,32749.158203125,32747.107421875,32747.888671875,32759.724609375,32762.08203125,32746.080078125,32740.583984375,32726.341796875,32715.703125,32695.181640625,32686.21484375,32668.6015625,32665.71875,32646.11328125,32638.283203125,32639.212890625,32628.6953125,32618.3125,32609.419921875,32604.888671875,32603.740234375,32606.267578125,32602.431640625,32610.62890625,32607.501953125,32604.47265625,32593.564453125,32590.6328125,32596.275390625,32613.81640625,32609.48046875,32616.369140625,32615.515625,32599.87890625,32612.900390625,32599.416015625,32603.7890625,32608.58984375,32613.169921875,32623.13671875,32618.861328125,32599.732421875,32600.197265625,32612.326171875,32607.72265625,32606.048828125,32621.57421875,32608.0390625,32603.958984375,32604.75390625,32613.9765625,32604.154296875,32603.01953125,32610.505859375,32599.158203125,32594.419921875,32598.181640625,32595.482421875,32602.62890625,32596.0078125,32583.291015625,32589.716796875,32595.177734375,32595.82421875,32588.849609375,32582.228515625,32573.8984375,32581.544921875,32582.326171875,32576.158203125,32582.130859375,32570.515625,32580.5546875,32567.205078125,32564.296875,32563.89453125,32559.38671875,32562.1484375,32567.75390625,32556.4921875,32573.6171875,32583.3046875,32581.09375,32563.7109375,32585.478515625,32587.08984375,32612.2421875,32628.78125,32630.1484375,32639.08984375,32638.72265625,32649.216796875,32652.892578125,32687.4609375,32728.357421875,32751.6875,32768.640625,32758.9921875,32737.53125,32727.6484375,32720.978515625,32686.263671875,32651.904296875,32604.509765625,32572.65234375,32554.18359375,32542.212890625,32537.44921875,32531.70703125,32529.544921875,32517.427734375,32528.03125,32523.560546875,32522.583984375,32531.78125,32525.13671875,32528.080078125,32555.34375,32590.36328125,32661.466796875,32830.890625,33141.2109375,33489.03515625,33792.76171875,34150.109375,33838.84765625,33303.8671875,32942.19140625,32911.8515625,32796.05078125,32716.19140625,32656.69140625,32631.748046875,32610.849609375,32606.353515625,32591.8671875,32573.3125,32566.056640625,32572.810546875,32564.529296875,32560.693359375,32553.841796875,32558.53125,32557.17578125,32555.8203125,32563.40625,32562.0625,32569.232421875,32574.423828125,32581.240234375,32569.8671875,32574.09375,32581.2890625,32582.86328125,32590.474609375,32591.537109375,32590.23046875,32598.90234375,32603.751953125,32604.900390625,32606.744140625,32609.603515625,32615.564453125,32622.490234375,32624.48046875,32623.234375,32629.025390625,32641.630859375,32647.34765625,32645.6484375,32655.5546875,32663.361328125,32653.369140625,32669.798828125,32682.72265625,32687.998046875,32693.03125,32702.876953125,32701.86328125,32706.08984375,32711.59765625,32725.095703125,32727.5625,32734.76953125,32746.49609375,32742.708984375,32600.63671875,32597.4375,32586.02734375,32598.927734375,32604.509765625,32601.19921875,32597.802734375,32604.228515625,32609.1015625,32616.173828125,32634.86328125,32654.11328125,32669.443359375,32671.251953125,32672.375,32688.486328125,32672.7421875,32687.607421875,32731.66796875,32763.5,32777.62109375,32795.16015625,32782.8984375,32776.69140625,32765.587890625,32739.484375,32694.044921875,32665.291015625,32599.892578125,32577.525390625,32570.099609375,32567.27734375,32564.359375,32553.451171875,32530.4609375,32526.443359375,32548.759765625,32551.923828125,32557.333984375,32555.1484375,32562.28125,32556.345703125,32585.185546875,32608.015625,32707.62890625,32922.98046875,33254.46875,33604.8671875,33949.85546875,34270.4765625,33876.46875,33422.8515625,33062.20703125,32946.11328125,32810.296875,32722.9453125,32662.677734375,32609.615234375,32611.263671875,32603.947265625,32599.232421875,32593.576171875,32575.853515625,32567.314453125,32565.408203125,32566.6796875,32558.763671875,32555.025390625,32558.41015625,32550.640625,32557.82421875,32565.43359375,32565.1640625,32564.28515625,32558.59375,32563.11328125,32571.248046875,32578.857421875,32586.333984375,32585.564453125,32581.86328125,32584.94140625,32587.041015625,32582.25390625,32583.865234375,32587.310546875,32597.583984375,32603.03125,32601.552734375,32624.67578125,32616.564453125,32616.724609375,32625.45703125,32632.029296875,32637.318359375,32635.767578125,32637.07421875,32654.529296875,32653.455078125,32666.390625,32664.705078125,32675.44140625,32681.6953125,32672.876953125,32691.19921875,32695.681640625,32703.51171875,32707.482421875,32710.779296875,32709.86328125,32721.650390625,32730.640625,32728.564453125,32737.138671875,32742.025390625,32734.927734375,32730.1640625,32718.9140625,32719.390625,32704.525390625,32691.4921875,32674.806640625,32661.3828125,32641.484375,32618.677734375,32606.646484375,32611.837890625,32608.392578125,32604.521484375,32592.099609375,32601.443359375,32577.63671875,32574.814453125,32576.28125,32574.728515625,32568.376953125,32575.3515625,32583.71875,32582.130859375,32567.15625,32571.22265625,32568.962890625,32562.099609375,32567.36328125,32567.65625,32567.388671875,32566.751953125,32564.724609375,32572.603515625,32573.49609375,32569.26953125,32572.005859375,32567.216796875,32572.322265625,32570.013671875,32571.796875,32569.0859375,32573.7265625,32570.625,32571.943359375,32564.75,32563.5390625,32560.328125,32556.28515625,32564.98046875,32556.19921875,32559.9375,32556.638671875,32557.6640625,32550.873046875,32540.52734375,32545.791015625,32546.744140625,32547.720703125,32547.794921875,32532.76953125,32538.927734375,32548.259765625,32543.068359375,32544.314453125,32534.5546875,32522.09375,32517.048828125,32520.71484375,32516.158203125,32522.228515625,32527.578125,32528.21484375,32527.126953125,32538.05859375,32551.349609375,32571.552734375,32588.99609375,32594.052734375,32594.505859375,32614.134765625,32594.994140625,32597.302734375,32643.6328125,32680.92578125,32707.396484375,32713.39453125,32708.41015625,32692.5546875,32685.703125,32670.568359375,32611.947265625,32601.40625,32549.638671875,32516.51171875,32491.38671875,32487.28125,32495.685546875,32488.490234375,32487.708984375,32474.39453125,32467.873046875,32471.390625,32477.65625,32482.93359375,32482.078125,32496.48046875,32519.6875,32543.7890625,32641.0078125,32850.1875,33189.765625,33544.50390625,33893.71875,34208.55859375,33816.99609375,33381.73828125,33013.1875,32884.953125,32749.96484375,32671.923828125,32609.08984375,32567.66796875,32562.07421875,32551.177734375,32535.34765625,32521.21484375,32508.646484375,32504.37109375,32495.783203125,32496.833984375,32489.724609375,32489.65234375,32498.8984375,32501.48828125,32499.9609375,32501.169921875,32492.09375,32503.369140625,32509.1953125,32522.44921875,32514.3984375,32517.330078125,32523.6328125,32522.876953125,32530.5234375,32529.435546875,32530.865234375,32533.61328125,32546.744140625,32555.197265625,32551.654296875,32554.5625,32556.6875,32565.34765625,32570.662109375,32569.537109375,32574.533203125,32568.927734375,32578.099609375,32587.7265625,32598.962890625,32600.025390625,32609.638671875,32612.09375,32618.80078125,32608.8828125,32496.3203125,32501.31640625,32484.228515625,32489.126953125,32485.62109375,32478.548828125,32479.720703125,32481.259765625,32476.984375,32477.814453125,32481.87109375,32479.48828125,32471.927734375,32463.658203125,32463.2421875,32462.693359375,32465.306640625,32461.912109375,32469.1171875,32463.072265625,32459.1015625,32470.791015625,32486.48828125,32505.04296875,32514.375,32527.2734375,32533.015625,32533.33203125,32523.2421875,32531.146484375,32585.6484375,32613.451171875,32642.265625,32658.59765625,32636.623046875,32631.95703125,32624.419921875,32601.9921875,32564.615234375,32528.0546875,32465.05078125,32446.49609375,32433.072265625,32430.017578125,32418.841796875,32411.365234375,32411.623046875,32422.578125,32410.0703125,32416.0078125,32406.11328125,32414.419921875,32414.96875,32422.994140625,32453.3359375,32466.234375,32558.421875,32768.30078125,33110.1015625,33441.40625,33774.14453125,34004.73828125,33579.9375,33106.4609375,32841.13671875,32793.1953125,32670.73828125,32588.556640625,32515.90234375,32499.58203125,32482.0546875,32451.759765625,32451.96875,32457.720703125,32444.2109375,32428.771484375,32424.58203125,32426.31640625,32429.7734375,32432.912109375,32433.853515625,32427.232421875,32429.6875,32414.578125,32433.107421875,32432.2890625,32446.373046875,32453.080078125,32442.46484375,32442.892578125,32450.46484375,32457.025390625,32461.630859375,32455.853515625,32455.767578125,32454.47265625,32461.80078125,32455.279296875,32459.724609375,32476.71484375,32477.130859375,32482.529296875,32476.912109375,32485.865234375,32486.890625,32492.302734375,32500.767578125,32501.40234375,32503.40625,32509.171875,32507.16796875,32531.951171875,32535.71484375,32539.171875,32540.44140625,32542.06640625,32559.826171875,32557.408203125,32563.125,32548.736328125,32568.4375,32580.212890625,32582.607421875,32580.947265625,32593.34375,32600.501953125,32606.169921875,32598.03515625,32602.4453125,32586.76171875,32565.06640625,32556.759765625,32553.71875,32544.826171875,32525.625,32509.48828125,32498.421875,32496.443359375,32483.642578125,32472.416015625,32462.66796875,32463.6328125,32457.294921875,32454.08203125,32456.98828125,32455.6328125,32451.076171875,32453.15234375,32450.55078125,32455.6328125,32452.06640625,32453.935546875,32455.021484375,32454.337890625,32450.978515625,32454.77734375,32450.576171875,32452.310546875,32446.77734375,32457.990234375,32463.095703125,32463.681640625,32454.033203125,32454.716796875,32467.310546875,32452.810546875,32466.822265625,32466.626953125,32470.205078125,32469.69140625,32458.455078125,32457.013671875,32466.759765625,32474.078125,32468.80078125,32466.41796875,32476.240234375,32468.775390625,32460.0546875,32451.845703125,32458.259765625,32456.390625,32463.365234375,32453.01953125,32459.578125,32458.833984375,32460.93359375,32453.25,32449.037109375,32472.501953125,32488.197265625,32509.623046875,32516.78125,32525.880859375,32541.076171875,32543.25,32550.15234375,32560.9140625,32606.158203125,32633.775390625,32655.703125,32656.5078125,32633.2265625,32612.291015625,32599.060546875,32570.515625,32541.2109375,32489.345703125,32445.212890625,32431.32421875,32433.962890625,32424.349609375,32419.720703125,32406.39453125,32399.2734375,32399.138671875,32547.671875,32549.712890625,32548.650390625,32565.482421875,32561.330078125,32568.181640625,32572.908203125,32577.8203125,32582.09375,32591.8671875,32588.642578125,32595.82421875,32604.130859375,32610.470703125,32597.705078125,32585.44140625,32598.109375,32583.486328125,32562.2578125,32555.123046875,32538.12109375,32529.27734375,32509.85546875,32508.560546875,32484.08203125,32469.056640625,32467.359375,32457.806640625,32457.35546875,32455.62109375,32453.396484375,32446.01953125,32441.244140625,32444.798828125,32442.37890625,32448.205078125,32442.916015625,32437.34765625,32440.119140625,32446.654296875,32445.763671875,32444.833984375,32445.310546875,32436.259765625,32439.77734375,32442.037109375,32452.25,32453.287109375,32457.0625,32452.46875,32447.19140625,32442.0625,32454.240234375,32450.05078125,32457.892578125,32462.05859375,32452.529296875,32453.0546875,32447.693359375,32455.64453125,32448.451171875,32457.611328125,32453.103515625,32448.14453125,32447.09375,32439.7890625,32441.01171875,32446.01953125,32433.974609375,32436.150390625,32433.291015625,32421.015625,32433.42578125,32444.896484375,32429.578125,32426.87890625,32436.076171875,32434.46484375,32416.6171875,32418.205078125,32415.287109375,32425.009765625,32424.326171875,32430.689453125,32447.216796875,32458.24609375,32484.08203125,32495.685546875,32510.662109375,32515.962890625,32499.314453125,32508.376953125,32573.15234375,32599.451171875,32621.232421875,32627.486328125,32608.11328125,32598.4140625,32574.642578125,32560.595703125,32512.982421875,32483.34765625,32424.130859375,32387.533203125,32388.451171875,32393.60546875,32389.390625,32382.74609375,32375.306640625,32368.966796875,32376.759765625,32373.376953125,32373.474609375,32367.146484375,32366.6953125,32372.595703125,32395.693359375,32443.455078125,32541.296875,32733.78125,33056.70703125,33413.71484375,33764.2734375,34140.765625,33772.62890625,33326.78125,32932.7734375,32799.30078125,32657.75390625,32567.509765625,32498.69140625,32458.833984375,32448.353515625,32429.259765625,32419.353515625,32412.5625,32407.5546875,32404.892578125,32393.0546875,32379.21484375,32394.77734375,32391.087890625,32375.35546875,32382.013671875,32390.91796875,32399.322265625,32394.10546875,32399.724609375,32400.787109375,32401.30078125,32405.869140625,32409.740234375,32406.833984375,32400.921875,32413.44140625,32410.23046875,32410.498046875,32416.88671875,32427.34375,32436.845703125,32423.373046875,32434.330078125,32434.330078125,32433.974609375,32430.93359375,32444.529296875,32442.330078125,32457.294921875,32468.373046875,32472.6484375,32475.51953125,32483.421875,32494.0859375,32485.181640625,32479.353515625,32501.939453125,32516.0234375,32519.126953125,32521.654296875,32529.59375,32534.46875,32533.80859375,32547.392578125,32554.548828125,32556.296875,32551.337890625,32562.26953125,32563.087890625,32566.814453125,32576.462890625,32569.390625,32561.4765625,32540.220703125,32543.51953125,32522.4609375,32505.310546875,32491.716796875,32470.412109375,32469.923828125,32466.67578125,32455.4375,32436.4921875,32433.9140625,32440.388671875,32440.64453125,32425.64453125,32433.388671875,32424.337890625,32427.513671875,32411.03515625,32420.453125,32431.544921875,32420.185546875,32428.8203125,32421.185546875,32426.853515625,32420.84375,32419.927734375,32418.646484375,32416.912109375,32425.974609375,32423.935546875,32430.34765625,32425.181640625,32419.4765625,32419.57421875,32427.16015625,32424.826171875,32409.435546875,32411.4140625,32417.484375,32417.375,32422.45703125,32425.669921875,32422.494140625,32422.712890625,32413.490234375,32407.1875,32403.365234375,32413.294921875,32419.244140625,32418.095703125,32412.048828125,32412.916015625,32408.01953125,32409.630859375,32411.12109375,32409.88671875,32410.9375,32410.314453125,32403.53515625,32401.947265625,32400.8125,32396.5234375,32394.166015625,32389.146484375,32392.298828125,32388.107421875,32390.318359375,32388.583984375,32389.416015625,32386.533203125,32378.62890625,32382.818359375,32382.76953125,32382.6484375,32385.287109375,32391.748046875,32417.15625,32425.951171875,32447.814453125,32451.185546875,32458.087890625,32477.05859375,32467.591796875,32476.5078125,32522.4609375,32546.09765625,32565.15234375,32577.013671875,32565.34765625,32554.6484375,32542.26171875,32521.80078125,32484.49609375,32441.57421875,32385.421875,32353.22265625,32340.677734375,32331.39453125,32329.4765625,32341.703125,32329.87890625,32341.751953125,32348.556640625,32348.482421875,32341.32421875,32337.07421875,32328.890625,32342.142578125,32370.310546875,32406.78515625,32482.4453125,32686.935546875,33029.078125,33364.83203125,33687.8828125,34063.640625,33713.30078125,33235.6328125,32844.15625,32753.04296875,32619.044921875,32542.26171875,32470.669921875,32424.765625,32423.53125,32402.130859375,32382.76953125,32373.974609375,32356.544921875,32347.982421875,32343.744140625,32345.111328125,32335.498046875,32340.82421875,32341.080078125,32343.1328125,32348.298828125,32345.001953125,32328.12109375,32350.767578125,32342.9609375,32344.341796875,32339.419921875,32348.677734375,32342.44921875,32349.349609375,32352.1953125,32362.431640625,32369.87109375,32358.70703125,32358.53515625,32375.13671875,32375.07421875,32382.513671875,32374.634765625,32379.984375,32387.802734375,32396.01171875,32398.283203125,32398.4296875,32399.75,32404.439453125,32417.619140625,32420.880859375,32418.21875,32431.2890625,32435.74609375,32447.314453125,32442.37890625,32454.166015625,32453.166015625,32459.7734375,32468.263671875,32466.662109375,32470.25390625,32472.28125,32470.767578125,32487.818359375,32483.3359375,32491.166015625,32499.412109375,32492.337890625,32500.279296875,32488.966796875,32468.2265625,32450.673828125,32446.49609375,32430.078125,32411.79296875,32398.6015625,32387.36328125,32373.095703125,32366.341796875,32358.70703125,32347.54296875,32342.38671875,32333.12890625,32335.328125,32336.1328125,32329.048828125,32441.6953125,32427.513671875,32408.666015625,32368.8203125,32329.330078125,32278.294921875,32254.78125,32248.380859375,32245.326171875,32230.265625,32225.197265625,32221.703125,32226.00390625,32218.197265625,32221.654296875,32222.55859375,32221.533203125,32218.22265625,32226.283203125,32236.373046875,32257.310546875,32329.5,32495.91796875,32815.109375,33163.6015625,33466.59375,33850.92578125,33517.30078125,33000.09375,32651.68359375,32594.431640625,32502.599609375,32418.0234375,32360.625,32312.546875,32298.462890625,32287.54296875,32276.328125,32262.220703125,32251.751953125,32245.009765625,32239.330078125,32239.939453125,32241.822265625,32243.091796875,32243.666015625,32239.31640625,32246.4140625,32244.3125,32244.240234375,32246.109375,32252.8515625,32257.994140625,32257.19921875,32265.603515625,32262.390625,32261.81640625,32259.935546875,32274.1796875,32269.0234375,32278.63671875,32275.314453125,32280.2734375,32282.765625,32287.333984375,32299.66015625,32302.041015625,32306.20703125,32295.701171875,32309.615234375,32315.306640625,32315.708984375,32331.22265625,32333.861328125,32349.728515625,32357.65625,32354.1015625,32359.0234375,32360.72265625,32361.78515625,32376.662109375,32381.572265625,32395.0703125,32397.6484375,32394.619140625,32397.048828125,32405.3671875,32403.62109375,32413.69921875,32421.61328125,32423.69140625,32429.712890625,32419.548828125,32414.431640625,32406.578125,32398.197265625,32388.939453125,32369.443359375,32354.7734375,32343.42578125,32331.8828125,32320.865234375,32313.083984375,32307.29296875,32293.50390625,32283.3515625,32271.515625,32265.029296875,32274.630859375,32266.58203125,32268.181640625,32266.958984375,32270.734375,32267.814453125,32266.470703125,32264.345703125,32265.65234375,32267.3515625,32265.0546875,32268.51171875,32274.228515625,32265.1640625,32262.013671875,32266.068359375,32266.8125,32272.95703125,32275.486328125,32275.791015625,32267.38671875,32274.10546875,32273.017578125,32277.28125,32267.619140625,32262.96484375,32269.611328125,32270.0859375,32277.57421875,32283.79296875,32279.931640625,32273.703125,32264.58984375,32268.083984375,32271.087890625,32270.16015625,32268.646484375,32256.576171875,32257.919921875,32259.228515625,32258.4453125,32247.07421875,32257.150390625,32260.974609375,32259.068359375,32254.01171875,32253.279296875,32242.7734375,32237.65625,32244.349609375,32242.7734375,32250.640625,32237.533203125,32234.224609375,32244.375,32240.392578125,32234.724609375,32239.7578125,32238.9140625,32238.92578125,32231.072265625,32233.34375,32236.10546875,32252.1796875,32254.37890625,32268.583984375,32285.392578125,32298.767578125,32309.357421875,32316.80859375,32335.974609375,32341.166015625,32329.146484375,32346.30859375,32393.166015625,32416.10546875,32427.28125,32421.22265625,32407.970703125,32408.12890625,32386.8984375,32362.712890625,32327.595703125,32286.564453125,32245.388671875,32226.248046875,32215.779296875,32223.658203125,32207.08203125,32204.11328125,32200.65625,32204.6875,32206.12890625,32212.93359375,32208.328125,32206.43359375,32201.341796875,32208.546875,32254.46484375,32292.1953125,32416.6796875,32713.3203125,33079.78125,33397.34765625,33827.4765625,33840.36328125,33335.9296875,32908.52734375,32679.65625,32554.599609375,32427.83203125,32360.2578125,32307.0625,32289.802734375,32281.30078125,32274.47265625,32260.498046875,32249.908203125,32242.65234375,32235.04296875,32227.322265625,32225.587890625,32235.287109375,32226.296875,32220.017578125,32228.421875,32241.576171875,32240.673828125,32237.47265625,32239.6953125,32237.6796875,32244.375,32248.515625,32246.68359375,32245.119140625,32254.78125,32265.37109375,32266.630859375,32269.68359375,32268.44921875,32265.359375,32269.3046875,32279.529296875,32288.15234375,32274.263671875,32293.89453125,32303.51953125,32311.935546875,32308.50390625,32310.43359375,32321.609375,32321.244140625,32326.642578125,32334.58203125,32348.88671875,32349.619140625,32351.42578125,32361.283203125,32372.228515625,32372.66796875,32397.025390625,32389.416015625,32385.93359375,32400.798828125,32405.234375,32410.205078125,32423.177734375,32420.9296875,32422.591796875,32425.095703125,32425.400390625,32427.26953125,32423.556640625,32410.4609375,32400.73828125,32394.1796875,32372.021484375,32359.40234375,32346.455078125,32330.171875,32315.611328125,32302.17578125,32299.109375,32301.13671875,32296.849609375,32293.734375,32296.21484375,32298.81640625,32287.46875,32278.650390625,32278.52734375,32275.474609375,32282.509765625,32276.916015625,32285.234375,32285.2578125,32276.462890625,32279.908203125,32282.9375,32283.279296875,32275.83984375,32280.419921875,32280.25,32279.896484375,32281.826171875,32279.46875,32285.74609375,32276.537109375,32282.205078125,32279.126953125,32287.505859375,32280.25,32277.685546875,32267.130859375,32263.271484375,32282.044921875,32277.697265625,32283.083984375,32277.892578125,32257.1875,32273.06640625,32294.84765625,32288.8359375,32298.279296875,32286.259765625,32291.390625,32285.91796875,32284.18359375,32273.287109375,32277.16015625,32270.74609375,32278.8203125,32271.50390625,32265.591796875,32271.931640625,32268.388671875,32267.47265625,32259.49609375,32245.193359375,32251.91015625,32261.841796875,32259.837890625,32258.849609375,32243.03125,32253.107421875,32251.384765625,32240.380859375,32237.66796875,32243.3125,32245.802734375,32244.66796875,32240.501953125,32228.7265625,32220.1640625,32184.826171875,32186.71875,32176.30078125,32177.154296875,32177.435546875,32175.041015625,32175.359375,32175.873046875,32174.736328125,32181.1015625,32183.189453125,32190.017578125,32188.943359375,32191.740234375,32187.453125,32204.578125,32202.708984375,32197.95703125,32208.095703125,32199.875,32198.12890625,32192.55859375,32200.193359375,32204.69921875,32207.802734375,32227.640625,32229.60546875,32231.193359375,32228.861328125,32245.412109375,32255.404296875,32245.865234375,32257.212890625,32257.724609375,32262.611328125,32261.353515625,32277.7578125,32278.173828125,32289.130859375,32297.791015625,32300.990234375,32298.15625,32307.208984375,32312.802734375,32323.369140625,32326.41015625,32326.544921875,32329.353515625,32337.818359375,32339.578125,32341.0078125,32361.8828125,32355.212890625,32357.412109375,32347.5546875,32345.0625,32342.47265625,32334.642578125,32308.880859375,32285.453125,32280.201171875,32274.251953125,32266.3359375,32254.109375,32234.833984375,32229.1171875,32218.22265625,32215.423828125,32205.62890625,32207.912109375,32215.36328125,32210.34375,32202.611328125,32196.4296875,32199.521484375,32196.22265625,32184.59375,32207.021484375,32203.0625,32195.599609375,32200.572265625,32198.0546875,32189.11328125,32193.71875,32207.546875,32212.333984375,32210.9296875,32191.068359375,32182.9453125,32192.986328125,32205.9453125,32209.439453125,32212.236328125,32204.943359375,32206.544921875,32207.97265625,32211.015625,32216.939453125,32209.4140625,32218.490234375,32220.82421875,32204.748046875,32202.57421875,32204.28515625,32212.150390625,32203.16015625,32207.791015625,32207.7421875,32203.759765625,32198.34765625,32208.23046875,32203.685546875,32208.31640625,32203.490234375,32199.875,32205.189453125,32192.693359375,32192.814453125,32183.775390625,32178.400390625,32172.171875,32185.828125,32193.81640625,32177.130859375,32166.345703125,32170.83984375,32170.509765625,32168.017578125,32169.60546875,32178.5234375,32169.49609375,32176.837890625,32173.44140625,32179.427734375,32167.994140625,32182.408203125,32190.189453125,32193.474609375,32195.83203125,32199.923828125,32199.802734375,32206.04296875,32202.46484375,32203.44140625,32207.044921875,32220.712890625,32223.681640625,32222.595703125,32225.416015625,32227.65234375,32234.236328125,32246.279296875,32249.69921875,32257.517578125,32252.228515625,32267.265625,32269.37890625,32268.2421875,32271.552734375,32273.06640625,32297.423828125,32298.302734375,32298.755859375,32309.455078125,32315.35546875,32323.24609375,32326.8125,32318.62890625,32318.787109375,32328.486328125,32336.96484375,32333.34765625,32345.0390625,32352.96484375,32351.70703125,32338.369140625,32341.154296875,32333.275390625,32317.029296875,32305.27734375,32281.470703125,32269.671875,32263.7109375,32251.58203125,32228.12890625,32229.7890625,32222.77734375,32213.103515625,32205.212890625,32203.845703125,32186.81640625,32188.72265625,32180.84375,32168.787109375,32183.5078125,32195.611328125,32187.232421875,32184.923828125,32184.69140625,32187.025390625,32174.333984375,32178.03515625,32179.255859375,32176.51953125,32180.587890625,32179.20703125,32185.802734375,32191.10546875,32183.212890625,32180.2578125,32182.150390625,32195.83203125,32190.75,32188.515625,32184.0078125,32197.419921875,32195.037109375,32186.474609375,32183.212890625,32189.333984375,32193.33984375,32187.953125,32188.478515625,32201.6953125,32198.287109375,32193.169921875,32193.681640625,32184.66796875,32185.888671875,32190.56640625,32196.39453125,32175.615234375,32175.53125,32171.474609375,32179.462890625,32174.578125,32172.78125,32165.220703125,32162.888671875,32167.908203125,32167.822265625,32160.798828125,32164.57421875,32155.16796875,32162.791015625,32163.53515625,32153.470703125,32155.119140625,32155.71875,32151.6015625,32163.560546875,32154.240234375,32133.779296875,32141.23046875,32151.662109375,32145.76171875,32144.259765625,32137.1015625,32138.666015625,32151.4296875,32139.60546875,32143.650390625,32138.763671875,32134.830078125,32151.259765625,32168.25,32188.587890625,32191.482421875,32217.244140625,32215.81640625,32218.63671875,32226.943359375,32224.66015625,32238.658203125,32296.23828125,32306.09765625,32326.30078125,32331.8828125,32322.4765625,32312.302734375,32304.21484375,32267.19140625,32246.439453125,32199.998046875,32153.71484375,32131.740234375,32119.244140625,32121.02734375,32112.341796875,32109.5703125,32104.134765625,32087.130859375,32108.568359375,32111.732421875,32109.263671875,32108.408203125,32101.091796875,32116.080078125,32167.126953125,32206.8984375,32341.556640625,32634.986328125,33012.515625,33322.43359375,32317.3828125,32328.046875,32333.470703125,32333.91015625,32331.087890625,32320.791015625,32303.3125,32279.00390625,32268.046875,32257.859375,32242.48046875,32223.072265625,32217.048828125,32217.0625,32198.689453125,32187.244140625,32188.490234375,32179.18359375,32171.40234375,32171.072265625,32175.103515625,32160.84765625,32174.89453125,32167.884765625,32168.91015625,32168.2265625,32166.33203125,32159.95703125,32163.5234375,32156.365234375,32171.451171875,32166.90625,32152.408203125,32164.806640625,32151.673828125,32156.083984375,32158.501953125,32164.916015625,32167.26171875,32151.736328125,32162.765625,32155.4609375,32159.28515625,32159.95703125,32157.048828125,32162.400390625,32169.654296875,32169.97265625,32156.5859375,32149.353515625,32144.76171875,32153.12890625,32155.962890625,32164.48828125,32159.40625,32151.662109375,32147.802734375,32136.076171875,32142.501953125,32143.576171875,32157.16015625,32148.498046875,32137.345703125,32144.517578125,32142.171875,32147.38671875,32139.66796875,32120.306640625,32123.12890625,32125.888671875,32125.802734375,32127.6484375,32121.50390625,32119.353515625,32127.87890625,32124.154296875,32127.109375,32118.302734375,32118.71875,32126.388671875,32117.498046875,32111.48828125,32115.921875,32112.29296875,32114.015625,32122.296875,32110.607421875,32108.763671875,32112.29296875,32105.6484375,32102.912109375,32106.455078125,32105.404296875,32095.802734375,32094.19140625,32101.703125,32097.18359375,32102.09375,32105.771484375,32097.6484375,32083.89453125,32095.65625,32098.283203125,32111.0234375,32128.185546875,32130.23828125,32149.134765625,32155.44921875,32172.66015625,32174.931640625,32172.85546875,32184.142578125,32229.044921875,32256.931640625,32279.748046875,32285.34375,32271.943359375,32246.40234375,32242.701171875,32226.943359375,32189.724609375,32163.4375,32109.69140625,32080.65625,32060.2578125,32063.958984375,32062.908203125,32048.82421875,32052.55078125,32037.9765625,32049.740234375,32055.224609375,32053.490234375,32054.919921875,32061.80859375,32057.58203125,32105.171875,32123.982421875,32239.732421875,32499.740234375,32829.765625,33142.703125,33495.8515625,33654.375,33183.85546875,32752.06640625,32489.322265625,32424.423828125,32278.650390625,32219.638671875,32161.8125,32136.296875,32133.64453125,32115.884765625,32108.53125,32091.80859375,32077.248046875,32077.908203125,32060.892578125,32058.560546875,32129.052734375,32117.802734375,32126.939453125,32083.9921875,32090.734375,32084.7734375,32094.556640625,32100.0546875,32100.95703125,32105.55078125,32091.0390625,32083.90625,32095.521484375,32086.3359375,32070.505859375,32113.306640625,32096.767578125,32119.927734375,32115.580078125,32102.65625,32099.833984375,32107.787109375,32121.869140625,32135.28125,32117.83984375,32111.51171875,32123.201171875,32097.3671875,32095.9140625,32122.626953125,32129.736328125,32093.115234375,32094.203125,32104.548828125,32114.9921875,32103.81640625,32111.70703125,32120.220703125,32151.576171875,32151.69921875,32130.322265625,32114.50390625,32131.6171875,32105.587890625,32094.765625,32101.49609375,32116.1171875,32126.046875,32112.220703125,32110.265625,32109.875,32106.80859375,32106.478515625,32103.595703125,32091.30859375,32108.5078125,32105.85546875,32110.71875,32112.3671875,32116.60546875,32123.494140625,32108.06640625,32114.50390625,32153.189453125,32137.884765625,32140.412109375,32137.322265625,32109.533203125,32094.044921875,32115.212890625,32147.47265625,32162.7421875,32172.1953125,32184.533203125,32167.19921875,32185.595703125,32201.29296875,32271.61328125,32258.080078125,32294.833984375,32318.689453125,32306.451171875,32298.193359375,32262.892578125,32246.8046875,32204.076171875,32173.748046875,32111.5,32085.287109375,32079.826171875,32084.3203125,32089.79296875,32108.189453125,32092.322265625,32087.765625,32076.197265625,32064.12890625,32086.251953125,32097.35546875,32073.9140625,32083.72265625,32074.37890625,32121.05078125,32239.060546875,32492.828125,32861.29296875,33154.87890625,33452.16796875,33592.1640625,33099.5234375,32598.365234375,32445.701171875,32404.537109375,32311.568359375,32247.57421875,32179.98828125,32145.37109375,32150.576171875,32129.333984375,32110.375,32104.390625,32098.501953125,32093.25,32063.884765625,32070.4453125,32076.24609375,32088.90234375,32126.62109375,32096.3046875,32076.271484375,32072.0078125,32089.3046875,32108.568359375,32096.072265625,32111.78125,32111.169921875,32109.654296875,32127.3671875,32149.68359375,32133.71875,32144.041015625,32141.890625,32140.119140625,32145.884765625,32171.70703125,32133.876953125,32143.966796875,32135.85546875,32184.80078125,32194.96484375,32203.587890625,32179.5,32144.3828125,32198.775390625,32177.154296875,32177.802734375,32152.150390625,32170.900390625,32176.69140625,32158.404296875,32170.486328125,32178.53515625,32165.91796875,32165.85546875,32179.85546875,32151.259765625,32166.380859375,32151.576171875,32147.705078125,32170.65625,32164.341796875,32128.05078125,32153.384765625,32193.107421875,32164.109375,32159.1015625,32130.115234375,32141.1328125,32157.416015625,32169.8515625,32150.771484375,32157.513671875,32128.466796875,32110.705078125,32135.099609375,32127.060546875,32171.20703125,32154.3984375,32139.740234375,32141.951171875,32120.501953125,32136.6875,32198.921875,32175.017578125,32201.9140625,32202.26953125,32213.470703125,32215.876953125,32240.685546875,32256.69921875,32287.65234375,32319.08203125,32331.796875,32303.482421875,32281.58203125,32275.802734375,32238.44921875,32231.20703125,32177.533203125,32143.650390625,32116.080078125,32093.1640625,32095.716796875,32109.375,32095.2421875,32083.697265625,32076.943359375,32072.66796875,32082.720703125,32109.923828125,32094.166015625,32084.259765625,32115.53125,32119.4140625,32143.013671875,32242.9453125,32432.05859375,32770.29296875,33130.92578125,33476.26953125,33828.1953125,33488.51953125,33035.30859375,32573.25,32481.087890625,32365.265625,32284.890625,32212.6640625,32158.4296875,32166.001953125,32188.306640625,32162.765625,32136.11328125,32138.640625,32119.4140625,32127.6484375,32096.890625,32082.232421875,32130.396484375,32106.0390625,32111.31640625,32108.6171875,32134.244140625,32142.537109375,32143.7109375,32117.619140625,32106.857421875,32117.326171875,32124.6796875,32124.21484375,32109.935546875,32121.248046875,32126.79296875,32163.15625,32170.669921875,32176.373046875,32176.080078125,32144.39453125,32166.50390625,32173.650390625,32187.990234375,32185.314453125,32169.337890625,32182.1640625,32191.177734375,32194.8671875,32171.70703125,32190.873046875,32189.30859375,32170.53515625,32177.521484375,32182.822265625,32177.44921875,32169.642578125,32173.197265625,32179.37890625,32164.7578125,32175.884765625,32172.830078125,32166.673828125,32156.560546875,32148.33984375,32139.21484375,32147.251953125,32174.357421875,32173.466796875,32168.640625,32152.345703125,32134.953125,32126.767578125,32133.083984375,32148.474609375,32136.1484375,32148.42578125,32144.919921875,32159.712890625,32145.921875,32140.6328125,32142.244140625,32123.373046875,32065.25390625,32053.076171875,32045.44140625,32043.9375,32053.943359375,32056.0546875,32052.35546875,32052.048828125,32070.62890625,32079.3125,32066.0234375,32059.78125,32052.123046875,32056.861328125,32061.564453125,32070.689453125,32068.673828125,32052.634765625,32061.0390625,32078.873046875,32059.732421875,32081.21875,32092.8359375,32064.09375,32100.84765625,32087.056640625,32105.513671875,32068.33203125,32075.427734375,32086.80078125,32099.162109375,32109.375,32120.478515625,32126.3046875,32135.91796875,32119.37890625,32115.712890625,32118.05859375,32160.53125,32141.072265625,32151.638671875,32141.9765625,32173.501953125,32159.89453125,32159.30859375,32179.939453125,32177.484375,32184.49609375,32201.8046875,32202.697265625,32197.615234375,32179.806640625,32163.962890625,32145.287109375,32148.669921875,32115.62890625,32104.818359375,32091.943359375,32082.146484375,32058.328125,32055.580078125,32028.767578125,31952.30078125,31949.638671875,31952.86328125,31945.375,31951.837890625,31937.521484375,31944.12890625,31947.1953125,31983.498046875,31993.380859375,32003.763671875,32001.771484375,32029.390625,32014.01171875,32028.64453125,32057.923828125,32112.4765625,32103.095703125,32093.0546875,32075.85546875,32065.716796875,32041.97265625,32007.171875,31997.521484375,31970.453125,31927.015625,31918.33203125,31915.9375,31905.28515625,31891.82421875,31874.30859375,31868.470703125,31866.455078125,31866.125,31864.68359375,31859.736328125,31871.962890625,31865.794921875,31882.259765625,31888.794921875,31903.8203125,31957.76171875,32111.095703125,32393.189453125,32767.08984375,33064.0390625,33455.35546875,33276.08984375,32729.505859375,32323.72265625,32274.27734375,32183.5078125,32073.71875,32028.853515625,31981.763671875,31961.21875,31942.419921875,31932.806640625,31932.330078125,31915.900390625,31892.423828125,31891.8984375,31899.38671875,31891.361328125,31892.1796875,31899.99609375,31900.53515625,31901.53515625,31907.484375,31908.181640625,31915.119140625,31923.44921875,31910.990234375,31908.046875,31923.400390625,31925.34375,31924.365234375,31923.2421875,31929.240234375,31923.400390625,31923.595703125,31929.142578125,31941.392578125,31937.607421875,31950.896484375,31944.923828125,31937.728515625,31952.9609375,31953.0703125,31959.544921875,31958.359375,31961.21875,31975.1796875,31978.599609375,31979.96875,31980.431640625,32003.0546875,32005.486328125,32015.208984375,32000.427734375,32017.603515625,32032.919921875,32036.732421875,32043.583984375,32042.55859375,32054.78515625,31855.0703125,31861.970703125,31880.5390625,31874.87109375,31876.3125,31865.623046875,31866.162109375,31876.580078125,31857.28125,31854.068359375,31856.33984375,31865.37890625,31851.845703125,31859.443359375,31870.974609375,31872.123046875,31867.67578125,31861.80078125,31871.255859375,31864.439453125,31869.19140625,31885.25390625,31907.94921875,31941.576171875,31938.779296875,31957.96875,31944.32421875,31969.927734375,31988.689453125,31997.705078125,32029.634765625,32003.603515625,32011.3125,32007.7578125,31982.6796875,31953.791015625,31952.619140625,31928.8125,31904.173828125,31877.533203125,31876.62890625,31848.546875,31837.859375,31831.99609375,31836.78515625,31841.486328125,31845.65234375,31840.986328125,31838.51953125,31834.59765625,31836.552734375,31847.8515625,31856.255859375,31888.966796875,31917.158203125,32001.91796875,32242.39453125,32573.080078125,32941.99609375,33306.43359375,33576.578125,33177.26953125,32741.5,32371.91015625,32236.275390625,32109.12890625,32042.484375,31981.12890625,31927.08984375,31925.220703125,31925.55078125,31895.9296875,31894.060546875,31888.599609375,31876.103515625,31878.009765625,31876.470703125,31873.416015625,31874.357421875,31880.587890625,31862.423828125,31862.740234375,31860.626953125,31863.486328125,31877.986328125,31894.169921875,31899.69140625,31901.51171875,31901.73046875,31894.57421875,31880.892578125,31887.318359375,31889.908203125,31901.05859375,31921.60546875,31904.015625,31916.158203125,31926.91796875,31924.87890625,31916.109375,31908.865234375,31921.04296875,31922.533203125,31914.1171875,31923.669921875,31962.46484375,31945.19140625,31942.84765625,31962.8671875,31968.767578125,31956.30859375,31980.896484375,31995.689453125,31997.09375,32001.515625,32024.541015625,32005.705078125,32007.353515625,32004.86328125,32025.93359375,32033.177734375,32023.208984375,32020.05859375,32003.568359375,32014.232421875,32020.6328125,32019.533203125,32027.607421875,32022.87890625,32004.177734375,32006.81640625,31972.859375,31960.1796875,31930.388671875,31927.46875,31912.65234375,31895.28125,31906.8984375,31883.603515625,31896.78515625,31863.865234375,31865.794921875,32021.181640625,32057.0078125,32072.49609375,32075.734375,32105.52734375,32121.4296875,32152.4921875,32180.111328125,32229.984375,32292.07421875,32360.294921875,32431.435546875,32459.736328125,32524.927734375,32581.349609375,32625.970703125,32661.810546875,32685.384765625,32658.572265625,32655.80078125,32629.85546875,32614.26953125,32617.810546875,32584.134765625,32528.849609375,32481.125,32462.619140625,32468.15234375,32459.517578125,32446.935546875,32438.103515625,32440.33984375,32433.939453125,32433.865234375,32416.51953125,32405.5625,32416.2890625,32407.93359375,32406.150390625,32462.228515625,32482.5546875,32616.02734375,32884.05078125,33259.63671875,33563.86328125,33962.4765625,34027.08203125,33503.94921875,33088.1875,32845.81640625,32785.765625,32630.123046875,32589.9609375,32506.69140625,32495.759765625,32476.984375,32485.951171875,32445.763671875,32451.015625,32451.759765625,32446.6796875,32433.560546875,32455.681640625,32442.2578125,32422.46875,32418.583984375,32404.732421875,32428.625,32437.75,32453.775390625,32430.775390625,32415.45703125,32426.732421875,32423.69140625,32421.638671875,32418.62109375,32415.189453125,32417.779296875,32393.32421875,32396.462890625,32374.3046875,32398.880859375,32389.09765625,32386.2890625,32392.7734375,32381.109375,32363.361328125,32343.6953125,32355.71484375,32390.208984375,32382.46484375,32370.470703125,32388.5234375,32371.166015625,32393.103515625,32395.681640625,32398.98046875,32379.7890625,32384.701171875,32388.939453125,32405.1484375,32415.91015625,32398.3203125,32393.3125,32441.59765625,32429.603515625,32432.791015625,32432.876953125,32426.951171875,32431.99609375,32429.931640625,32453.666015625,32426.623046875,32419.732421875,32413.087890625,32374.904296875,32370.419921875,32350.36328125,32335.130859375,32317.46875,32308.44140625,32273.32421875,32266.91015625,32254.01171875,32224.927734375,32221.51953125,32214.166015625,32216.20703125,32215.4375,32193.755859375,32199.59375,32189.67578125,32183.71484375,32185.986328125,32186.193359375,32178.4140625,32199.423828125,32174.236328125,32011.068359375,32003.25,31988.298828125,31961.083984375,31963.587890625,31928.103515625,31892.69140625,31890.54296875,31882.224609375,31886.9140625,31882.431640625,31869.923828125,31869.765625,31874.076171875,31878.302734375,31878.962890625,31867.9453125,31842.732421875,31862.837890625,31884.373046875,31958.03125,32160.970703125,32504.6875,32830.23046875,33204.09375,33384.2421875,32951.16015625,32418.8046875,32185.046875,32119.525390625,31990.15625,31882.1015625,31802.21484375,31735.044921875,31689.470703125,31657.357421875,31633.1484375,31588.44140625,31549.376953125,31475.109375,31440.333984375,31449.837890625,31436.876953125,31434.62890625,31449.8984375,31453.197265625,31443.9140625,31449.60546875,31452.01171875,31460.94140625,31453.66015625,31466.560546875,31466.021484375,31472.59375,31490.525390625,31478.7265625,31466.658203125,31455.908203125,31451.693359375,31452.59765625,31445.1953125,31459.560546875,31464.837890625,31468.685546875,31472.47265625,31459.78125,31465.314453125,31497.841796875,31539.642578125,31617.732421875,31842.146484375,32183.958984375,32564.236328125,32937.515625,33368.66796875,33030.06640625,32550.005859375,32120.685546875,31940.4765625,31784.345703125,31680.54296875,31605.017578125,31576.640625,31572.744140625,31557.537109375,31543.5625,31526.365234375,31528.94140625,31502.9609375,31514.6015625,31502.263671875,31497.8671875,31511.546875,31518.27734375,31508.15234375,31520.28125,31531.591796875,31519.169921875,31526.962890625,31537.6640625,31533.5703125,31531.091796875,31545.7734375,31551.8203125,31542.0234375,31543.978515625,31558.1484375,31550.28125,31540.08203125,31547.5078125,31569.728515625,31568.798828125,31568.287109375,31573.869140625,31579.072265625,31589.650390625,31593.046875,31586.546875,31596.83203125,31603.220703125,31603.05078125,31606.2265625,31627.236328125,31628.798828125,31636.568359375,31640.146484375,31645.205078125,31656.83203125,31650.310546875,31668.046875,31668.021484375,31677.904296875,31664.076171875,31689.875,31691.974609375,31690.326171875,31695.28515625,31692.5625,31717.46875,31726.005859375,31705.546875,31711.54296875,31698.986328125,31693.6484375,31692.1953125,31661.3515625,31646.2421875,31634.443359375,31625.720703125,31617.146484375,31612.443359375,31591.873046875,31588.380859375,31580.611328125,31578.693359375,31576.0546875,31570.435546875,31551.490234375,31552.578125,31572.732421875,31614.263671875,31630.47265625,31652.642578125,31638.75390625,31656.673828125,31652.5703125,31667.984375,31686.001953125,31711.763671875,31717.6640625,31676.59765625,31651.06640625,31647.427734375,31625.794921875,31616.009765625,31601.1328125,31583.005859375,31546.115234375,31541.609375,31546.861328125,31538.982421875,31532.203125,31524.984375,31536.24609375,31550.978515625,31547.130859375,31535.904296875,31545.578125,31538.62890625,31555.986328125,31594.5,31631.5234375,31728.55859375,31973.82421875,32329.169921875,32688.33984375,33081.25,33370.87890625,32974.5859375,32567.25390625,32175.3359375,32001.478515625,31847.01953125,31750.619140625,31689.6796875,31659.5078125,31642.6640625,31643.666015625,31621.568359375,31608.228515625,31603.001953125,31594.744140625,31582.8828125,31573.74609375,31582.37109375,31577.97265625,31584.984375,31580.68359375,31582.3828125,31604.822265625,31591.640625,31582.2734375,31580.37890625,31580.232421875,31597.89453125,31605.138671875,31599.935546875,31599.923828125,31598.37109375,31598.580078125,31606.091796875,31604.6875,31613.482421875,31620.84765625,31620.84765625,31618.869140625,31625.09765625,31630.58203125,31618.3671875,31628.115234375,31634.076171875,31648.673828125,31638.302734375,31628.482421875,31639.4140625,31637.068359375,31615.875,31617.939453125,31618.07421875,31623.900390625,31617.927734375,31628.201171875,31628.310546875,31630.36328125,31627.58984375,31617.37890625,31626.576171875,31631.658203125,31625.96484375,31610.35546875,31620.126953125,31617.85546875,31622.08203125,31619.8828125,31608.583984375,31613.287109375,31621.103515625,31612.015625,31608.205078125,31604.296875,31611.69921875,31622.3984375,31608.71875,31610.318359375,31611.234375,31609.21875,31610.0625,31593.15625,31619.150390625,31611.076171875,31605.787109375,31608.375,31613.763671875,31614.470703125,31646.779296875,31649.150390625,31647.720703125,31646.6953125,31656.41796875,31660.19140625,31658.017578125,31669.03515625,31673.45703125,31679.845703125,31676.072265625,31676.498046875,31681.12890625,31683.888671875,31685.025390625,31687.517578125,31696.275390625,31712.240234375,31708.0390625,31713.546875,31711.837890625,31719.740234375,31729.916015625,31729.09765625,31739.955078125,31748.568359375,31754.076171875,31754.13671875,31758.23046875,31769.234375,31774.70703125,31781.609375,31786.0546875,31787.8515625,31784.8828125,31805.037109375,31803.107421875,31808.15234375,31797.68359375,31804.4140625,31805.037109375,31805.904296875,31789.68359375,31790.013671875,31763.896484375,31741.421875,31728.4609375,31719.91015625,31713.572265625,31693.318359375,31687.529296875,31683.802734375,31684.12109375,31661.546875,31658.591796875,31642.6875,31653.376953125,31652.27734375,31648.24609375,31640.94140625,31632.5,31634.919921875,31630.119140625,31627.00390625,31626.2578125,31623.25390625,31618.26953125,31612.96875,31626.734375,31623.595703125,31627.95703125,31622.142578125,31624.634765625,31615.412109375,31621.091796875,31620.787109375,31635.591796875,31632.4765625,31630.595703125,31628.677734375,31624.462890625,31618.55078125,31620.54296875,31622.86328125,31615.2890625,31616.302734375,31629.435546875,31622.814453125,31514.076171875,31515.73828125,31520.060546875,31521.306640625,31526.046875,31522.67578125,31525.716796875,31541.62109375,31556.15625,31643.5546875,31827.1953125,32169.6796875,32511.515625,32825.3203125,33132.74609375,32755.193359375,32257.041015625,31972.064453125,31910.66015625,31785.529296875,31705.607421875,31647.720703125,31617.5625,31593.962890625,31590.640625,31569.935546875,31543.72265625,31541.890625,31551.0390625,31536.662109375,31528.806640625,31530.37109375,31518.25390625,31542.146484375,31538.37109375,31540.412109375,31541.658203125,31536.478515625,31536.501953125,31541.3515625,31548.193359375,31535.025390625,31543.111328125,31542.708984375,31552.650390625,31547.521484375,31543.232421875,31550.623046875,31552.931640625,31555.8515625,31560.73828125,31570.64453125,31582.908203125,31579.462890625,31569.751953125,31583.494140625,31591.2265625,31589.11328125,31585.228515625,31591.591796875,31601.095703125,31598.798828125,31604.2109375,31616.890625,31619.466796875,31618.111328125,31638.095703125,31632.244140625,31653.64453125,31656.673828125,31659.38671875,31670.74609375,31673.2734375,31664.455078125,31673.04296875,31677.09765625,31683.400390625,31686.978515625,31685.990234375,31695.06640625,31693.880859375,31700.1953125,31702.28515625,31680.982421875,31662.78125,31657.28515625,31634.759765625,31613.126953125,31602.037109375,31587.76953125,31588.416015625,31569.373046875,31561.51953125,31563.033203125,31563.791015625,31549.42578125,31548.705078125,31528.708984375,31530.822265625,31544.89453125,31546.873046875,31540.546875,31542.5859375,31549.40234375,31550.146484375,31536.90625,31543.990234375,31532.435546875,31538.640625,31533.92578125,31547.19140625,31546.91015625,31536.564453125,31543.025390625,31554.654296875,31551.16015625,31540.55859375,31540.484375,31547.361328125,31542.96484375,31543.587890625,31547.361328125,31553.005859375,31558.34375,31561.8984375,31563.14453125,31562.654296875,31550.404296875,31536.013671875,31550.37890625,31544.283203125,31546.751953125,31551.33203125,31544.515625,31538.419921875,31526.03515625,31534.572265625,31531.93359375,31536.748046875,31541.62109375,31539.71484375,31538.482421875,31545.19921875,31547.154296875,31537.943359375,31535.48828125,31528.208984375,31528.587890625,31526.560546875,31506.599609375,31490.158203125,31487.654296875,31494.384765625,31487.09375,31505.26953125,31481.669921875,31475.146484375,31488.876953125,31494.8125,31491.41796875,31489.669921875,31499.91796875,31488.8515625,31483.037109375,31489.181640625,31502.080078125,31503.265625,31512.244140625,31514.099609375,31506.5390625,31505.6484375,31508.494140625,31512.037109375,31519.70703125,31517.86328125,31530.443359375,31514.380859375,31517.875,31540.375,31543.134765625,31549.951171875,31547.166015625,31547.77734375,31555.08203125,31554.97265625,31561.80078125,31563.216796875,31574.61328125,31588.708984375,31602.953125,31601.21875,31608.693359375,31610.734375,31613.6640625,31613.8125,31624.5,31625.818359375,31638.5234375,31634.552734375,31641.6015625,31652.630859375,31652.10546875,31662.048828125,31659.373046875,31659.6171875,31649.9921875,31635.212890625,31621.43359375,31614.30078125,31611.13671875,31581.52734375,31553.65234375,31546.568359375,31550.892578125,31537.95703125,31536.857421875,31529.162109375,31514.296875,31507.96875,31508.103515625,31502.94921875,31505.1953125,31501.177734375,31497.806640625,31503.388671875,31489.5,31497.0859375,31497.818359375,31487.80078125,31487.533203125,31500.638671875,31495.900390625,31497.85546875,31507.22265625,31505.85546875,31505.904296875,31504.1328125,31500.078125,31501.0546875,31513.84375,31510.19140625,31501.06640625,31508.26171875,31508.25,31511.546875,31511.474609375,31513.72265625,31516.787109375,31502.66796875,31497.76953125,31504.181640625,31513.7578125,31517.251953125,31507.1875,31516.15234375,31511.888671875,31510.412109375,31507.822265625,31484.833984375,31495.38671875,31510.546875,31504.279296875,31487.068359375,31486.54296875,31482.40234375,31498.220703125,31505.57421875,31497.169921875,31490.806640625,31484.58984375,31487.97265625,31480.154296875,31614.04296875,31557.5859375,31538.396484375,31532.423828125,31522.48046875,31510.546875,31493.1640625,31480.998046875,31489.48828125,31482.4140625,31459.865234375,31470.1640625,31480.8515625,31476.22265625,31473.400390625,31478.93359375,31490.07421875,31483.8203125,31486.396484375,31493.615234375,31492.638671875,31501.34765625,31491.306640625,31508.787109375,31506.501953125,31507.02734375,31497.830078125,31499.4921875,31508.138671875,31516.32421875,31522.296875,31530.822265625,31537.833984375,31525.484375,31529.796875,31544.771484375,31537.908203125,31549.98828125,31560.248046875,31558.880859375,31560.859375,31573.708984375,31574.833984375,31582.943359375,31591.275390625,31588.880859375,31587.68359375,31597.431640625,31608.1796875,31606.93359375,31615.55859375,31622.7890625,31611.22265625,31620.06640625,31633.734375,31646.6953125,31652.65625,31656.013671875,31656.455078125,31660.9375,31650.8359375,31653.9140625,31629.177734375,31629.8984375,31609.5859375,31600.998046875,31579.59765625,31554.861328125,31553.75,31540.228515625,31531.53125,31520.453125,31519.767578125,31515.2734375,31504.81640625,31489.98828125,31483.16015625,31494.3125,31498.625,31494.49609375,31495.412109375,31473.716796875,31479.60546875,31479.861328125,31489.169921875,31487.849609375,31484.2109375,31479.69140625,31472.251953125,31481.6328125,31495.5703125,31479.287109375,31465.97265625,31502.080078125,31506.89453125,31500.45703125,31498.134765625,31470.6640625,31472.6796875,31466.876953125,31490.66015625,31503.73046875,31492.845703125,31494.41015625,31490.35546875,31496.828125,31490.2578125,31475.8671875,31468.330078125,31461.91796875,31467.646484375,31470.126953125,31463.859375,31459.6953125,31465.2890625,31454.8203125,31451.31640625,31458.791015625,31463.37109375,31453.697265625,31453.134765625,31451.03515625,31459.830078125,31452.09765625,32468.666015625,32056.59375,31934.02734375,31797.671875,31709.30859375,31628.884765625,31589.98046875,31549.31640625,31540.16796875,31515.333984375,31523.75,31483.013671875,31497.060546875,31472.27734375,31481.853515625,31478.482421875,31478.54296875,31468.685546875,31481.876953125,31475.35546875,31475.037109375,31470.994140625,31481.16796875,31481.7421875,31479.12890625,31486.775390625,31489.01171875,31464.068359375,31463.994140625,31465.9375,31438.111328125,31444.060546875,31436.779296875,31441.640625,31441.8984375,31448.26171875,31476.22265625,31495.484375,31510.97265625,31489.5,31453.501953125,31440.603515625,31423.84375,31442.080078125,31440.859375,31454.650390625,31439.771484375,31447.064453125,31461.392578125,31495.314453125,31528.318359375,31561.7265625,31539.6796875,31527.3046875,31485.76171875,31469.541015625,31468.625,31491.7109375,31500.994140625,31513.306640625,31519.14453125,31530.87109375,31543.111328125,31558.697265625,31559.0390625,31556.70703125,31547.77734375,31539.5078125,31394.162109375,31362.12109375,31359.49609375,31335.259765625,31319.650390625,31234.90234375,31235.84375,31263.86328125,31289.294921875,31281.5390625,31247.740234375,31282.8828125,31293.27734375,31308.021484375,31360.59375,31335.87109375,31348.416015625,31358.76171875,31354.51171875,31402.931640625,31417.98046875,31429.474609375,31417.2109375,31401.63671875,31394.466796875,31393.84375,31380.859375,31395.75,31362.427734375,31299.654296875,31280.134765625,31298.1640625,31308.86328125,31307.03125,31309.267578125,31313.25,31291.494140625,31266.966796875,31301.865234375,31291.25,31296.33203125,31278.009765625,31579.87890625,31579.537109375,31585.044921875,31593.71875,31583.322265625,31592.263671875,31615.154296875,31618.9296875,31614.8984375,31628.91015625,31635.1640625,31631.42578125,31618.685546875,31611.943359375,31580.1953125,31595.318359375,31593.05859375,31563.15625,31527.732421875,31522.529296875,31511.974609375,31485.603515625,31486.60546875,31502.521484375,31494.88671875,31481.009765625,31477.810546875,31471.4453125,31487.1171875,31470.505859375,31477.76171875,31478.17578125,31483.94140625,31473.05859375,31481.62109375,31487.38671875,31476.173828125,31477.638671875,31472.619140625,31472.8984375,31477.48046875,31464.923828125,31468.330078125,31486.15234375,31483.0625,31488.92578125,31478.787109375,31489.5859375,31482.525390625,31490.109375,31485.248046875,31481.23046875,31487.21484375,31491.955078125,31504.71875,31511.400390625,31499.099609375,31510.97265625,31512.0859375,31513.685546875,31509.69140625,31505.892578125,33291.23828125,32762.14453125,32329.5625,32161.03125,32008.9921875,31877.49609375,31790.7578125,31766.71875,31765.65625,31747.3828125,31715.8671875,31703.62890625,31701.880859375,31689.337890625,31685.4765625,31667.30078125,31662.048828125,31663.91796875,31661.083984375,31664.13671875,31667.361328125,31649.02734375,31653.64453125,31666.12890625,31672.859375,31662.623046875,31677.68359375,31680.6640625,31677.5625,31692.341796875,31688.25,31704.740234375,31701.759765625,31696.703125,31680.76171875,31687.615234375,31705.435546875,31701.857421875,31701.013671875,31701.22265625,31701.13671875,31715.1953125,31702.259765625,31706.828125,31713.791015625,31712.705078125,31721.400390625,31733.62890625,31729.646484375,31729.548828125,31742.58203125,31735.986328125,31492.39453125,31493.078125,31491.283203125,31493.494140625,31469.234375,31449.97265625,31453.404296875,31464.23828125,31457.716796875,31453.5625,31459.646484375,31445.134765625,31439.001953125,31439.90625,31422.427734375,31406.486328125,31404.654296875,31408.880859375,31393.623046875,31402.724609375,31408.55078125,31416.4296875,31395.58984375,31392.939453125,31386.880859375,31397.373046875,31398.583984375,31406.64453125,31403.45703125,31397.30078125,31400.6484375,31398.375,31402.357421875,31404.5078125,31398.228515625,31405.58203125,31404.7265625,31408.306640625,31410.4921875,31400.123046875,31409.001953125,31430.29296875,31409.11328125,31421.609375,31419.01953125,31407.87890625,31431.22265625,31433.517578125,31435.423828125,31432.11328125,31450.693359375,31451.876953125,31445.68359375,31451.2421875,31462.162109375,31468.171875,31479.7890625,31485.029296875,31492.615234375,31484.90625,31479.53125,31497.37890625,31508.810546875,31515.212890625,31522.845703125,31533.4609375,31536.24609375,31542.78125,31542.0859375,31534.3046875,31543.2578125,31532.740234375,31293.265625,31283.005859375,31284.15234375,31278.107421875,31288.07421875,31271.81640625,31259.099609375,31261.32421875,31262.544921875,31266.90625,31265.439453125,31261.62890625,31258.490234375,31264.71875,31242.5859375,31246.91015625,31237.087890625,31227.927734375,31225.142578125,31203.044921875,31219.376953125,31258.16015625,31272.79296875,31302.853515625,31304.33203125,31273.5390625,31280.904296875,31299.6171875,31318.734375,31316.376953125,31283.298828125,31252.69921875,31239.177734375,31229.748046875,31214.24609375,31203.08203125,31201.775390625,31177.89453125,31129.1328125,31118.310546875,31111.958984375,31136.900390625,31134.99609375,31154.466796875,31166.498046875,31178.640625,31173.337890625,31170.00390625,31168.794921875,31177.00390625,31181.033203125,31184.576171875,31207.833984375,31201.494140625,31191.966796875,31209.201171875,31208.138671875,31238.298828125,31240.154296875,31246.787109375,31253.212890625,31248.205078125,31245.296875,31244.90625,31216.861328125,31207.369140625,31170.041015625,31172.51953125,31166.4609375,31162.33203125,31140.40625,31144.681640625,31130.4765625,31116.5390625,31095.552734375,31092.951171875,31084.009765625,31064.9921875,31070.59765625,31066.568359375,31095.3828125,31105.423828125,31094.234375,31077.830078125,31072.78515625,31096.091796875,31104.12890625,31118.017578125,31138.6484375,31108.0625,31199.234375,31189.009765625,31189.376953125,31166.021484375,31146.685546875,31118.17578125,31101.55078125,31109.673828125,31141.970703125,31118.150390625,31139.72265625,31121.412109375,31101.783203125,31078.916015625,31063.978515625,31053.912109375,31062.31640625,31079.294921875,31083.64453125,31128.19140625,31160.123046875,31297.431640625,31696.3359375,31719.556640625,31755.724609375,31782.8671875,31821.162109375,31814.357421875,31824.935546875,31822.029296875,31826.681640625,31824.142578125,31806.5390625,31788.71875,31775.818359375,31755.6640625,31742.544921875,31723.1484375,31719.49609375,31695.00390625,31693.5625,31685.35546875,31661.560546875,31659.826171875,31649.478515625,31636.921875,31620.517578125,31603.490234375,31584.361328125,31583.494140625,31567.626953125,31545.06640625,31507.48046875,31487.251953125,31475.025390625,31464.6171875,31440.212890625,31406.205078125,31371.662109375,31360.30078125,31342.22265625,31318.9296875,31308.521484375,31279.962890625,31267.236328125,31247.03125,31253.0546875,31247.544921875,31213.07421875,31210.08203125,31198,31179.5078125,31215.162109375,31218.619140625,31224.984375,31234.279296875,31241.4609375,31269.861328125,31316.498046875,31393.85546875,31598.873046875,31938.767578125,32283.25390625,32628.291015625,32980.1796875,32618.287109375,32167.67578125,31827.48828125,31700.85546875,31556.33984375,31459.68359375,31381.921875,31344.62890625,31331.265625,31299.068359375,31274.736328125,31271.4609375,31271.291015625,31252.650390625,31237.7109375,31234.939453125,31232.935546875,31204.486328125,31189.767578125,31190.916015625,31184.22265625,31173.509765625,31168.306640625,31165.509765625,31158.0703125,31145.646484375,31139.955078125,31142.10546875,31138.599609375,31135.59375,31126.34765625,31121.2421875,31117.40625,31107.5234375,31099.53515625,31109.845703125,31105.740234375,31095.078125,31090.228515625,31107.03515625,31121.302734375,31114.6953125,31119.458984375,31128.974609375,31140.6640625,31129.328125,31128.47265625,31191.33203125,31194.421875,31196.15625,31183.587890625,31186.775390625,31184.478515625,31182.12109375,31191.869140625,31191.80859375,31188.716796875,31189.3046875,31186.1640625,31183.697265625,31187.814453125,31180.203125,31185.529296875,31175.451171875,31179.482421875,31183.5625,31185.8828125,31179.384765625,31171.7265625,31187.58203125,31185.87109375,31182.267578125,31174.51171875,31169.89453125,31177.80859375,31179.263671875,31174.658203125,31172.837890625,31169.9921875,31163.224609375,31171.029296875,31192.431640625,31186.103515625,31178.6640625,31172.458984375,31174.90234375,31177.150390625,31165.77734375,31160.29296875,31157.7890625,31191.1484375,31208.859375,31245.248046875,31257.181640625,31243.09765625,31264.046875,31259.6875,31279.255859375,31308.216796875,31251.490234375,31255.740234375,31266.83203125,31256.33984375,31278.595703125,31277.421875,31268.06640625,31282.578125,31297.345703125,31294.6328125,31293.486328125,31300.912109375,31310.732421875,31305.603515625,31308.900390625,31307.59375,31332.841796875,31330.791015625,31337.30078125,31346.05859375,31345.900390625,31351.0546875,31354.376953125,31360.58203125,31357.7109375,31367.435546875,31379.552734375,31381.15234375,31395.1015625,31383.55859375,31366.505859375,31365.541015625,31351.26171875,31349.099609375,31332.31640625,31317.560546875,31295.09765625,31293.55859375,31282.662109375,31279.8046875,31266.625,31247.814453125,31246.93359375,31235.513671875,31238.787109375,31250.84375,31243.697265625,31237.48046875,31225.642578125,31233.326171875,31232.177734375,31222.541015625,31267.369140625,31268.84765625,31288.07421875,31306.884765625,31317.20703125,31313.224609375,31297.02734375,31263.7421875,31262.984375,31246.45703125,31207.41796875,31212.59765625,31197.634765625,31200.67578125,31197.20703125,31169.5390625,31163.494140625,31185.603515625,31166.0703125,31158.107421875,31166.71875,31157.458984375,31180.607421875,31177.11328125,31178.970703125,31180.8515625,31193.4453125,31277.69140625,31434.703125,31738.501953125,32100.517578125,32390.35546875,32787.390625,32542.908203125,31996.703125,31631.21875,31569.544921875,31462.822265625,31349.05078125,31305.65234375,31273.525390625,31252.58984375,31237.7109375,31226.291015625,31208.970703125,31200.56640625,31202.166015625,31199.24609375,31198.232421875,31184.662109375,31191.8203125,31192.455078125,31187.666015625,31189.841796875,31173.08203125,31163.408203125,31171.115234375,31172.97265625,31178.224609375,31175.427734375,31176.26953125,31171.287109375,31173.912109375,31171.5546875,31173.033203125,31182.658203125,31186.591796875,31189.70703125,31180.97265625,31177.626953125,31188.86328125,31188.705078125,31184.69921875,31175.76953125,31186.775390625,31178.93359375,31178.45703125,31188.1796875,31189.31640625,31187.09375,31188.4609375,31189.388671875,31183.94140625,31183.28125,31185.98046875,31180.642578125,31187.97265625,31193.396484375,31190.671875,31179.421875,31172.19140625,31179.763671875,31168.697265625,31170.48046875,31174.9140625,31172.837890625,31169.748046875,31174.009765625,31174.486328125,31175.732421875,31175.5,31163.84765625,31213.990234375,31208.93359375,31214.162109375,31211.55859375,31207.28515625,31211.92578125,31206.220703125,31221.13671875,31229.099609375,31230.896484375,31221.208984375,31232.349609375,31235.806640625,31246.798828125,31247.6171875,31244.392578125,31249.828125,31241.865234375,31257.732421875,31262.01953125,31259.30859375,31267.69921875,31265.671875,31272.9765625,31267.931640625,31284.775390625,31287.6953125,31295.255859375,31298.28515625,31305.30859375,31302.48828125,31321.580078125,31321.298828125,31327.529296875,31339.462890625,31349.638671875,31244.466796875,31242.4140625,31227.462890625,31209.166015625,31226.546875,31227.23046875,31228.83203125,31225.337890625,31226.755859375,31222.515625,31219.951171875,31215.162109375,31215.833984375,31213.990234375,31200.11328125,31210.49609375,31224.4453125,31209.677734375,31214.943359375,31213.685546875,31207.80859375,31209.740234375,31209.34765625,31208.505859375,31207.443359375,31207.13671875,31210.984375,31217.447265625,31214.466796875,31202.556640625,31227.279296875,31227.462890625,31238.310546875,31250.1953125,31258.85546875,31261.25,31251.7109375,31260.46875,31278.16796875,31280.48828125,31277.751953125,31277.361328125,31279.1328125,31279.9765625,31291.12890625,31283.677734375,31286.205078125,31299.970703125,31301.376953125,31312.943359375,31301.1328125,31303.806640625,31320.810546875,31337.9609375,31341.91796875,31339.4140625,31346.23046875,31352.154296875,31348.720703125,31357.650390625,31375.47265625,31389.873046875,31390.826171875,31401.576171875,31403.06640625,31403.236328125,31412.97265625,31414.9140625,31427.751953125,31426.201171875,31412.703125,31401.34375,31402.064453125,31392.525390625,31380.56640625,31371.673828125,31352.142578125,31328.396484375,31322.7890625,31312.89453125,31300.1796875,31288.35546875,31296.16015625,31295.28125,31294.560546875,31291.078125,31283.775390625,31288.4765625,31277.86328125,31285.765625,31290.11328125,31286.92578125,31279.2421875,31289.61328125,31284.2265625,31286.669921875,31299.99609375,31284.177734375,31265.7578125,31278.65625,31302.12109375,31324.158203125,31331.595703125,31355.85546875,31349.234375,31355.244140625,31363.794921875,31384.890625,31397.8984375,31370.513671875,31351.310546875,31344.005859375,31334.064453125,31320.5546875,31315.044921875,31302.96484375,31319.34375,31324.23046875,31332.6953125,31349.625,31351.287109375,31347.48828125,31347.48828125,31355.0859375,31353.375,31363.404296875,31373.17578125,31374.654296875,31379.24609375,31387.271484375,31391.53515625,31392.87890625,31399.462890625,31407.5859375,31397.240234375,31406.53515625,31411.947265625,31422.060546875,31429.548828125,31420.09375,31406.9375,31386.83203125,31395.28515625,31381.8984375,31350.224609375,31336.201171875,31336.5546875,31321.640625,31309.12109375,31288.1484375,31296.13671875,31278.779296875,31274.283203125,31265.26953125,31268.28515625,31264.083984375,31262.03125,31249.046875,31253.46875,31243.171875,31250.953125,31249.853515625,31247.177734375,31245.11328125,31253.26171875,31251.662109375,31250.59765625,31242.59765625,31242.083984375,31245.615234375,31235.646484375,31239.958984375,31248.974609375,31228.26953125,31239.361328125,31223.224609375,31230.1015625,31250.720703125,31267.3203125,31289.33203125,31292.38671875,31282.6015625,31296.599609375,31317.330078125,31340.146484375,31337.349609375,31326.35546875,31307.80078125,31284.04296875,31272.21875,31272.40234375,31266.185546875,31260.833984375,31240.837890625,31209.62890625,31192.724609375,31196.6328125,31208.95703125,31204.267578125,31209.60546875,31215.11328125,31212.525390625,31230.638671875,31213.708984375,31210.412109375,31195.49609375,31254.166015625,31282.087890625,31380.603515625,31379.099609375,31378.904296875,31385.671875,31400.146484375,31407.87890625,31406.25390625,31405.203125,31404.189453125,31391.951171875,31378.28125,31382.1171875,31365.1875,31350.982421875,31333.24609375,31317.853515625,31311.84375,31292.49609375,31282.1015625,31268.8359375,31263.912109375,31255.240234375,31263.2890625,31260.015625,31256.4609375,31247.32421875,31243.404296875,31245.052734375,31239.373046875,31237.357421875,31235.6953125,31236.955078125,31240.265625,31239.201171875,31237.455078125,31239.873046875,31237.7109375,31231.359375,31235.109375,31234.73046875,31244.283203125,31237.796875,31243.806640625,31252.41796875,31246.25,31255.521484375,31258.490234375,31252.8828125,31256.669921875,31249.5234375,31240.728515625,31241.291015625,31284.470703125,31279.05859375,31273.599609375,31247.630859375,31253.408203125,31236.3671875,31212,31207.50390625,31195.875,31203.583984375,31197.146484375,31202.60546875,31203.314453125,31224.25,31219.669921875,31215.138671875,31218.1796875,31239.59375,31401.943359375,31401.001953125,31410.822265625,31415.025390625,31412.837890625,31434.447265625,31440.78515625,31446.9921875,31450.97265625,31433.896484375,31433.580078125,31431.197265625,31422.244140625,31399.12109375,31393.673828125,31374.91015625,31346.498046875,31331.046875,31339.193359375,31327.162109375,31310.818359375,31297.466796875,31289.099609375,31295.09765625,31295.4765625,31285.216796875,31286.755859375,31287.40234375,31283.8359375,31273.26953125,31274.564453125,31272.890625,31274.162109375,31274.283203125,31274.1484375,31270.642578125,31268.017578125,31281.892578125,31276.421875,31274.515625,31264.12109375,31264.388671875,31281.26953125,31267.150390625,31277.240234375,31283.65234375,31282.80859375,31274.369140625,31283.859375,31286.36328125,31279.33984375,31276.494140625,31286.90234375,31308.94921875,31328.48046875,31324.5,31327.3203125,31321.73828125,31353.693359375,31355.87890625,31344.580078125,31325.109375,31313.798828125,31293.4375,31283.677734375,31289.4296875,31279.255859375,31275.626953125,31259.24609375,31237.271484375,31225.326171875,31242.462890625,31243.57421875,31239.12890625,31238.994140625,31243.037109375,31242.462890625,31236.515625,31231.396484375,31250.9765625,31272.4765625,31305.75,31374.3125,31558.84375,31886.755859375,32245.53515625,32576.98828125,33017.08203125,32762.4609375,32274.802734375,31888.1484375,31750.1796875,31571.681640625,31463.982421875,31408.427734375,31388.310546875,31366.359375,31360.900390625,31342.00390625,31335.28515625,31334.662109375,31324.841796875,31319.9921875,31321.32421875,31310.40234375,31301.7421875,31295.037109375,31303.66015625,31300.423828125,31304.638671875,31304.515625,31304.34375,31304.478515625,31302.439453125,31294.169921875,31303.171875,31303.392578125,31302.9765625,31301.6328125,31303.587890625,31311.966796875,31301.71875,31299.41015625,31303.025390625,31301.73046875,31310.48828125,31317.830078125,31313.615234375,31306.505859375,31308.802734375,31319.13671875,31315.119140625,31320.11328125,31318.208984375,31308.814453125,31308.228515625,31308.9609375,31313.775390625,31312.333984375,31308.791015625,31301.1328125,31306.384765625,31305.224609375,31297.552734375,31276.275390625,31268.041015625,31266.83203125,31265.7578125,31257.048828125,31229.22265625,31203.1796875,31194.763671875,31187.556640625,31191.7109375,31190.818359375,31194.580078125,31194.201171875,31205.7578125,31197.5,31188.75390625,31192.955078125,31215.431640625,31257.634765625,31276.494140625,31416.294921875,31693.294921875,32060.83203125,32372.326171875,32786.26953125,32799.5234375,32300.208984375,31872.513671875,31689.533203125,31560.39453125,31428.16796875,31357.1875,31324.669921875,31307.421875,31290.87109375,31280.732421875,31253.1875,31237.515625,31239.958984375,31234.865234375,31225.986328125,31236.185546875,31241.755859375,31235.953125,31236.52734375,31227.279296875,31227.671875,31239.298828125,31227.98828125,31226.73046875,31212.03515625,31219.890625,31230.56640625,31221.404296875,31222.087890625,31224.947265625,31222.529296875,31212.439453125,31214.78515625,31216.51953125,31209.62890625,31205.68359375,31202.935546875,31225.900390625,31242.70703125,31232.99609375,31210.6796875,31220.904296875,31233.25390625,31243.0625,31222.333984375,31214.34375,31209.8984375,31216.873046875,31207.234375,31226.376953125,31216.861328125,31201.25,31208.505859375,31193.078125,31171.4453125,31192.931640625,31204.6953125,31204.388671875,30976.126953125,31000.337890625,31031.3515625,31168.57421875,31417.455078125,31779.935546875,32083.845703125,32470.486328125,32312.38671875,31817.21484375,31373.53125,31310.66015625,31242.98828125,31147.41796875,31063.734375,31017.865234375,30993.19140625,30971.423828125,30928.880859375,30907.33203125,30895.935546875,30905.109375,30910.728515625,30907.345703125,30893.9453125,30892.662109375,30909.99609375,30885.22265625,30871.859375,30854.197265625,30881.986328125,30896.021484375,30882.388671875,30907.099609375,30915.712890625,30914.099609375,30914.05078125,30923.75,30937.283203125,30969.140625,30969.947265625,30968.9453125,30975.248046875,30967.271484375,30991.884765625,30985.375,30998.115234375,31000.033203125,30985.435546875,31003.439453125,31027.22265625,31052.51953125,31038.38671875,31063.146484375,31074.921875,31088.333984375,31095.50390625,31109.771484375,31118.787109375,31096.359375,31104.666015625,31139.02734375,31160.416015625,31153.990234375,31164.53125,31148.75,31140.638671875,31157.59375,31211.62109375,31209.04296875,31281.392578125,31270.30078125,31263.423828125,31266.3671875,31272.4140625,31260.603515625,31256.291015625,31263.681640625,31252.796875,31254.935546875,31255.10546875,31242.48828125,31229.833984375,31244.490234375,31234.583984375,31222.02734375,31205.732421875,31219.572265625,31252.650390625,31275.30859375,31256.888671875,31254.41015625,31260.150390625,31263.326171875,31270.265625,31261.93359375,31273.7578125,31299.080078125,31323.814453125,31368.033203125,31393.013671875,31412.97265625,31428.4609375,31445.6484375,31480.27734375,31492.22265625,31438.7578125,31429.609375,31430.037109375,31424.515625,31435.716796875,31394.748046875,31385.439453125,31390.4609375,31377.890625,31362.1953125,31350.96875,31347.28125,31342.662109375,31356.294921875,31352.470703125,31361.974609375,31346.376953125,31345.447265625,31375.435546875,31400.037109375,31430.255859375,31485.810546875,31634.857421875,31970.734375,32349.01953125,32676.02734375,33111.234375,32913.4140625,32419.927734375,31998.412109375,31574.22265625,31571.302734375,31562.03125,31547.3984375,31523.115234375,31508.65234375,31487.41015625,31465.923828125,31417.943359375,31410.3828125,31432.96875,31401.173828125,31394.552734375,31386.0625,31379.638671875,31371.673828125,31351.3359375,31346.328125,31335.041015625,31326.892578125,31337.484375,31340.3671875,31336.8359375,31310.7578125,31313.4453125,31325.9765625,31325.708984375,31331.021484375,31321.115234375,31307.97265625,31338.521484375,31345.19140625,31338.765625,31321.849609375,31326.662109375,31329.287109375,31336.884765625,31325.87890625,31308.0703125,31309.451171875,31329.958984375,31336.884765625,31351.8984375,31335.75,31337.533203125,31368.6328125,31356.001953125,31331.205078125,31337.142578125,31344.3359375,31340.5859375,31337.77734375,32406.2109375,32747.802734375,33134.91015625,32828.86328125,32361.345703125,31961.669921875,31849.169921875,31716.24609375,31619.1015625,31562.0078125,31493.15234375,31515.65234375,31507.2109375,31492.58984375,31485.859375,31477.345703125,31454.9921875,31456.091796875,31444.31640625,31443.73046875,31448.359375,31446.9296875,31449.837890625,31446.845703125,31448.212890625,31448.1640625,31441.287109375,31421.8046875,31428.83984375,31429.732421875,31410.408203125,31381.396484375,31395.615234375,31386.576171875,31370.37890625,31366.80078125,31357.638671875,31357.9921875,31341.05078125,31346.265625,31314.23828125,31339.90234375,31334.283203125,31329.177734375,31333.5390625,31332.8671875,31329.62890625,31329.556640625,31332.70703125,31341.783203125,31341.759765625,31337.458984375,31333.697265625,31333.734375,31345.9375,31341.625,31229.587890625,31226.7421875,31226.1328125,31227.4140625,31225.837890625,31217.337890625,31225.900390625,31218.326171875,31210.97265625,31213.818359375,31221.380859375,31215.138671875,31209.0546875,31213.623046875,31219.095703125,31214.466796875,31215.1015625,31198.0625,31195.984375,31214.7109375,31213.685546875,31202.703125,31208.75,31210.21484375,31256.9140625,31275.736328125,31281.220703125,31292.642578125,31313.005859375,31337.642578125,31353.8515625,31345.216796875,31313.93359375,31307.58203125,31288.91796875,31287.31640625,31269.970703125,31253.236328125,31225.826171875,31208.505859375,31212.5859375,31204.548828125,31215.67578125,31192.48046875,31190.87890625,31215.236328125,31209.8125,31218.1796875,31222.8828125,31223.65234375,31222.064453125,31235.5859375,31266.41796875,31343.982421875,31545.919921875,31879.744140625,32229.703125,32552.546875,32868.73046875,32500.314453125,31431.076171875,31415.0859375,31409.197265625,31395.408203125,31373.994140625,31356.24609375,31344.88671875,31321.212890625,31308.33984375,31293.16796875,31291.93359375,31285.9375,31271.572265625,31261.75,31268.236328125,31256.962890625,31260.052734375,31253.029296875,31258.818359375,31274.98046875,31254.080078125,31251.478515625,31250.634765625,31255.77734375,31251.697265625,31242.927734375,31257.390625,31254.99609375,31258.16015625,31260.6875,31242.083984375,31237.98046875,31246.408203125,31264.31640625,31265.28125,31267.67578125,31258.783203125,31250.123046875,31257.79296875,31256.4609375,31264.107421875,31252.50390625,31261.384765625,31260.908203125,31245.712890625,31257.853515625,31259.69921875,31252.662109375,31267.3828125,31261.53125,31253.0546875,31246.26171875,31259.259765625,31250.8671875,31251.380859375,31254.091796875,31247.203125,31238.75,31249.4140625,31246.5546875,31241.6328125,31233.6328125,31220.07421875,31241.572265625,31252.3203125,31242.51171875,31230.541015625,31240.59375,31224.935546875,31221.61328125,31231.6171875,31224.080078125,31238.689453125,31256.9140625,31303.501953125,31305.98046875,31301.302734375,31315.765625,31320.712890625,31355.01171875,31298.62890625,31304.24609375,31294.669921875,31300.056640625,31305.064453125,31308.802734375,31315.265625,31310.720703125,31316.853515625,31324.939453125,31330.8515625,31338.876953125,31332.353515625,31344.263671875,31360.044921875,31361.7421875,31357.015625,31371.74609375,31384.486328125,31396.982421875,31389.287109375,31395.1015625,31406.42578125,31408.232421875,31420.349609375,31414.095703125,31428.314453125,31431.392578125,31427.984375,31422.537109375,31436.23046875,31425.1875,31409.748046875,31398.802734375,31391.36328125,31383.998046875,31374.2265625,31362.96484375,31342.736328125,31324.255859375,31320.224609375,31314.51953125,31300.97265625,31295.07421875,31297.236328125,31282.919921875,31274.125,31282.41796875,31279.73046875,31277.544921875,31272.462890625,31268.396484375,31286.23046875,31286.669921875,31283.873046875,31280.94140625,31268.970703125,31277.9609375,31277.86328125,31283.615234375,31290.9453125,31279.73046875,31285.36328125,31282.87109375,31283.28515625,31280.634765625,31274.89453125,31280.892578125,31283.603515625,31296.72265625,31289.4296875,31287.9765625,31293.240234375,31283.298828125,31289.162109375,31271.412109375,31279.51171875,31282.759765625,31287.244140625,31285.69140625,31281.673828125,31270.65625,31270.09375,31273.63671875,31283.505859375,31276.71484375,31275.75,31286.33984375,31270.08203125,31268.76171875,31272.12109375,31267.95703125,31275.5546875,31255.826171875,31267.00390625,31257.09765625,31248.9375,31255.521484375,31264.328125,31259.748046875,31270.8515625,31264.658203125,31249.15625,31252.28515625,31257.755859375,31269.0546875,31241.64453125,31234.40234375,31240.349609375,31258.46484375,31289.5390625,31322.7890625,31319.087890625,31323.412109375,31339.9765625,31343.1640625,31361.181640625,31378.525390625,31376.669921875,31339.609375,31327.748046875,31321.140625,31309.279296875,31284.751953125,31282.736328125,31264.3046875,31245.67578125,31229.736328125,31226.83984375,31223.994140625,31230.78515625,31234.107421875,31230.078125,31221.44140625,31356.099609375,31363.306640625,31369.20703125,31376.951171875,31397.97265625,31409.72265625,31403.384765625,31411.884765625,31403.701171875,31401.35546875,31430.048828125,31430.84375,31434.7890625,31436.4375,31433.017578125,31429.072265625,31418.580078125,31393.904296875,31375.412109375,31369.328125,31354.79296875,31338.08203125,31327.1015625,31319.466796875,31305.296875,31303.3671875,31295.84375,31294.158203125,31285.9609375,31280.01171875,31282.1875,31271.279296875,31279.548828125,31281.759765625,31290.908203125,31281.673828125,31283.041015625,31282.724609375,31285.521484375,31274.294921875,31274.064453125,31278.64453125,31276.15234375,31275.615234375,31273.8671875,31276.212890625,31281.6484375,31284.568359375,31292.642578125,31285.228515625,31275.712890625,31280.892578125,31191.697265625,31183.611328125,31183.048828125,31177.296875,31190.66015625,31197.244140625,31206.83203125,31200.078125,31200.40625,31213.55078125,31230.859375,31259.490234375,31333.990234375,31526.376953125,31861.32421875,32217.427734375,32544.9609375,32954.78515625,32642.009765625,32161.6171875,31757.58203125,31630.826171875,31514.736328125,31409.087890625,31336.505859375,31301.92578125,31276.04296875,31261.5546875,31252.431640625,31243.720703125,31235.232421875,31218.546875,31217.703125,31212.158203125,31213.416015625,31222.7109375,31210.412109375,31215.357421875,31198.57421875,31205.5859375,31206.283203125,31217.60546875,31215.138671875,31212.255859375,31218.6328125,31218.009765625,31221.33203125,31221.208984375,31214.943359375,31216.15234375,31224.2265625,31238.029296875,31233.83984375,31237.3828125,31239.421875,31246.494140625,31255.59375,31255.412109375,31264.291015625,31257.4140625,31259.197265625,31254.568359375,31268.25,31275.56640625,31279.4375,31283.93359375,31310.671875,31324.451171875,31329.60546875,31339.609375,31343.08984375,31343.078125,31356.453125,31357.6015625,31251.16015625,31245.541015625,31227.03515625,31235.5859375,31240.142578125,31237.638671875,31237.455078125,31222.087890625,31227.0234375,31232.77734375,31235.537109375,31246.091796875,31237.11328125,31227.158203125,31235.048828125,31229.91796875,31232.09375,31239.984375,31238.494140625,31233.228515625,31237.3828125,31235.818359375,31231.603515625,31217.484375,31212.09765625,31215.736328125,31212.646484375,31213.9296875,31262.630859375,31278.4609375,31286.095703125,31305.236328125,31329.837890625,31343.908203125,31360.509765625,31341.91796875,31314.080078125,31303.84375,31285.509765625,31268.041015625,31256.974609375,31250.1953125,31252.345703125,31216.994140625,31219.05859375,31210.630859375,31203.986328125,31202.9609375,31211.095703125,31210.935546875,31212.939453125,31216.5546875,31216.701171875,31215.578125,31220.732421875,31238.859375,31257.853515625,31338.814453125,31535.341796875,31862.875,31421.62109375,31418.6640625,31415.697265625,31424.69921875,31433.28515625,31435.033203125,31434.8125,31419.43359375,31400.330078125,31382.19140625,31365.296875,31356.283203125,31339.486328125,31329.0546875,31316.388671875,31302.390625,31289.833984375,31280.220703125,31289.845703125,31280.37890625,31281.80859375,31272.40234375,31264.107421875,31265.060546875,31281.41796875,31265.5859375,31264.291015625,31273.392578125,31270.38671875,31264.0234375,31260.11328125,31265.548828125,31258.904296875,31270.19140625,31266.955078125,31276.017578125,31262.984375,31267.69921875,31272.634765625,31268.9453125,31278.44921875,31279.328125,31277.21484375,31280.85546875,31288.2578125,31278.044921875,31271.8046875,31282.48046875,31284.03125,31282.908203125,31288.197265625,31279.486328125,31275.96875,31283.06640625,31303.501953125,31289.064453125,31291.958984375,31291.2265625,31283.5546875,31279.20703125,31279.5234375,31274.478515625,31276.861328125,31281.34375,31282.02734375,31275.98046875,31272.29296875,31266.490234375,31268.06640625,31266.587890625,31269.947265625,31269.60546875,31264.193359375,31260.46875,31256.328125,31259.369140625,31255.716796875,31266.208984375,31258.220703125,31264.267578125,31264.962890625,31255.923828125,31260.859375,31265.427734375,31257.439453125,31263.693359375,31273.330078125,31267.61328125,31273.0625,31260.015625,31264.70703125,31265.708984375,31277.166015625,31269.60546875,31254.458984375,31271.046875,31263.3515625,31265.134765625,31265.109375,31262.056640625,31258.392578125,31256.03515625,31280.9765625,31314.740234375,31338.546875,31341.857421875,31342.7734375,31349.197265625,31366.849609375,31402.296875,31374.556640625,31348.869140625,31335.56640625,31324.388671875,31316.6328125,31300.435546875,31288.611328125,31278.607421875,31263.900390625,31259.234375,31251.662109375,31253.45703125,31259.8828125,31260.98046875,31267.919921875,31260.6640625,31422,31428.205078125,31437.8671875,31436.388671875,31433.798828125,31450.435546875,31462.638671875,31466.4140625,31484.357421875,31477.6015625,31481.216796875,31489.4375,31484.197265625,31495.900390625,31487.1171875,31487.361328125,31480.423828125,31456.080078125,31432.908203125,31425.712890625,31416.771484375,31403.1875,31382.7890625,31379.271484375,31364.748046875,31360.521484375,31347.525390625,31341.759765625,31337.875,31340.990234375,31347.6953125,31334.625,31333.599609375,31325.916015625,31325.513671875,31326.404296875,31328.029296875,31342.564453125,31342.78515625,31341.673828125,31331.119140625,31330.6796875,31343.62890625,31338.216796875,31336.505859375,31354.31640625,31345.65625,31327.626953125,31328.431640625,31348.453125,31348.85546875,31354.669921875,31355.07421875,31338.546875,31337.5078125,31343.8359375,31361.14453125,31360.203125,31350.931640625,31346.767578125,31351.3359375,31354.169921875,31348.34375,31348.611328125,31340.07421875,31346.595703125,31353.521484375,31358.359375,31349.759765625,31349.4296875,31351.5546875,31362.1953125,31355.123046875,31354.0234375,31345.228515625,31336.080078125,31343.5546875,31339.841796875,31349.05078125,31351.275390625,31347.5859375,31347.5859375,31341.33203125,31345.08203125,31350.810546875,31349.173828125,31386.173828125,31415.134765625,31520.037109375,31772.1171875,32113.13671875,32454.59375,32820.54296875,33048.01171875,32628.81640625,32242.052734375,31918.025390625,31778.54296875,31621.99609375,31537.173828125,31482.720703125,31438.392578125,31421.83984375,31422.623046875,31393.966796875,31374.88671875,31378.4765625,31377.890625,31376.462890625,31380.236328125,31368.962890625,31364.52734375,31371.869140625,31374.3125,31361.658203125,31367.69140625,31361.291015625,31371.9921875,31382.38671875,31381.505859375,31376.291015625,31389.740234375,31385.8671875,31388.15234375,31403.17578125,31395.310546875,31385.818359375,31392.78125,31402.919921875,31403.310546875,31405.337890625,31407.18359375,31409.4921875,31416.978515625,31426.861328125,31428.228515625,31430.025390625,31429.5859375,31438.16015625,31439.833984375,31442.619140625,31449.69140625,31449.01953125,31461.857421875,31463.46875,31462.064453125,31477.712890625,31484.455078125,31491.306640625,31498.123046875,31514.39453125,31508.580078125,31504.083984375,31516.212890625,31521.72265625,31537.11328125,31539.166015625,31530.310546875,31542.560546875,31543.708984375,31539.23828125,31539.154296875,31535.09765625,31509.62890625,31498.208984375,31486.677734375,31469.564453125,31452.37890625,31433.46875,31428.021484375,31422.072265625,31404.958984375,31398.6328125,31393.099609375,31379.3203125,31374.3984375,31375.38671875,31374.568359375,31368.291015625,31366.775390625,31363.306640625,31361.6328125,31370.84375,31368.423828125,31364.833984375,31358.798828125,31365.359375,31353.65625,31356.869140625,31359.251953125,31299.568359375,31301.828125,31297.455078125,31303.099609375,31299.275390625,31297.822265625,31302.76953125,31293.9609375,31296.306640625,31311.404296875,31302.3046875,31286.44921875,31281.857421875,31283.54296875,31304.515625,31335.919921875,31340.048828125,31371.74609375,31365.28515625,31360.642578125,31361.9375,31392.169921875,31407.462890625,31396.71484375,31374.60546875,31363.427734375,31340.916015625,31330.58203125,31331.486328125,31322.41015625,31314.103515625,31277.9609375,31270.01953125,31266.111328125,31267.1015625,31269.361328125,31273.330078125,31264.90234375,31268.76171875,31276.212890625,31287.03515625,31283.73828125,31273.55078125,31298.48046875,31326.662109375,31378.2578125,31533.498046875,31841.009765625,32221.166015625,32520.580078125,32955.984375,32768.8984375,32255.099609375,31841.083984375,31735.912109375,31597.19921875,31487.19140625,31437.390625,31381.591796875,31366.396484375,31355.171875,31343.689453125,31335.75,31325.78125,31299.3984375,31295.390625,31307.6796875,31301.92578125,31288.85546875,31294.158203125,31304.6015625,31309.53515625,31308.326171875,31305.162109375,31306.91015625,31306.982421875,31305.56640625,31309.451171875,31304.52734375,31300.97265625,31298.56640625,31314.447265625,31313.712890625,31298.982421875,31305.162109375,31311.171875,31316.9375,31298.115234375,31308.876953125,31323.486328125,31326.025390625,31320.810546875,31324.9765625,31314.666015625,31309.169921875,31306.25,31311.955078125,31323.75390625,31323.375,31325.416015625,31322.7890625,31320.505859375,31313.08984375,31315.8515625,31316.5234375,31312.796875,31313.873046875,31317.390625,31309.083984375,31301.71875,31310.451171875,31315.705078125,31312.150390625,31314.62890625,31303,31305.67578125,31294.21875,31300.619140625,31293.25390625,31288.880859375,31296.35546875,31281.52734375,31289.13671875,31286.03515625,31288.171875,31287.365234375,31290.138671875,31285.2890625,31279.279296875,31278.240234375,31287.4140625,31279.255859375,31277.30078125,31275.529296875,31276.62890625,31272.169921875,31278.64453125,31287.916015625,31282.845703125,31282.466796875,31277.533203125,31272.20703125,31275.908203125,31273.671875,31273.708984375,31280.671875,31284.642578125,31272.09765625,31277.240234375,31271.595703125,31267.736328125,31255.2890625,31266.759765625,31283.505859375,31307.38671875,31316.876953125,31334.515625,31341.306640625,31346.9140625,31340.46484375,31366.8984375,31385.94140625,31372.248046875,31342.455078125,31343.103515625,31318.46484375,31299.7265625,31305.578125,31298.84765625,31292.251953125,31269.32421875,31255.97265625,31246.5546875,31239.921875,31242.40234375,31237.638671875,31253.359375,31257.623046875,31255.97265625,31262.912109375,31256.14453125,31246.396484375,31272.744140625,31310.09765625,31380.322265625,31553.640625,31874.076171875,32245.705078125,32561.21875,32989.83203125,32786.0859375,32274.2890625,31478.689453125,31468.501953125,31448.53125,31430.57421875,31415.611328125,31404.32421875,31386.74609375,31380.6640625,31366.212890625,31350.48046875,31348.5625,31342.00390625,31334.41796875,31335.28515625,31341.306640625,31333.1484375,31334.796875,31337.337890625,31324.658203125,31323.265625,31326.123046875,31317.818359375,31317.70703125,31318.025390625,31329.25,31326.087890625,31311.13671875,31315.203125,31328.896484375,31326.9296875,31323.119140625,31329.421875,31337.484375,31341.697265625,31338.044921875,31332.09765625,31336.62890625,31328.25,31331.81640625,31330.521484375,31335.37109375,31338.900390625,31351.15234375,31344.8125,31336.421875,31332.20703125,31334.13671875,31340.3046875,31341.6484375,31344.361328125,31332.427734375,31324.03515625,31336.873046875,31328.9453125,31321.8359375,31317.5,31320.58984375,31318.34375,31314.384765625,31310.20703125,31315.0703125,31313.798828125,31257.109375,31265.341796875,31261.6171875,31266.0625,31273.623046875,31263.423828125,31272,31314.703125,31346.609375,31457.41015625,31723.478515625,32093.4453125,32420.025390625,32804.93359375,32983.9921875,32541.466796875,32134.31640625,31832.66796875,31684.474609375,31529.515625,31455.798828125,31395.859375,31365.4921875,31355.158203125,31349.466796875,31329.458984375,31317.353515625,31306.080078125,31293.044921875,31295.57421875,31290.638671875,31290.5546875,31289.33203125,31283.787109375,31280.74609375,31285.802734375,31306.640625,31308.265625,31292.5078125,31294.31640625,31296.7109375,31307.2265625,31311.966796875,31303.685546875,31313.775390625,31317.79296875,31319.33203125,31314.04296875,31313.408203125,31322.875,31326.734375,31324.70703125,31331.046875,31328.2734375,31325.232421875,31333.94140625,31342.48046875,31349.357421875,31296.123046875,31286.0703125,31286.658203125,31292.51953125,31287.9765625,31290.408203125,31287.40234375,31282.759765625,31284.935546875,31284.59375,31286.107421875,31283.359375,31275.67578125,31269.1171875,31269.5078125,31268.494140625,31266.404296875,31269.958984375,31280.806640625,31277.275390625,31268.615234375,31263.619140625,31248.3515625,31251.966796875,31246.23828125,31254.166015625,31254.421875,31255.58203125,31251.404296875,31240.97265625,31235.96484375,31239.458984375,31242.623046875,31240.423828125,31246.06640625,31243.794921875,31240.77734375,31241.216796875,31242.927734375,31242.439453125,31235.78125,31230.28515625,31232.435546875,31232.544921875,31237.271484375,31239.287109375,31234.669921875,31240.923828125,31237.8828125,31231.359375,31229.41796875,31234.658203125,31235.353515625,31234.828125,31234.755859375,31232.09375,31237.1015625,31236.1484375,31234.107421875,31232.2265625,31229.78515625,31220.220703125,31227.609375,31241.302734375,31235.646484375,31232.01953125,31248.4609375,31268.810546875,31291.177734375,31309.083984375,31294.73046875,31305.162109375,31316.560546875,31335.359375,31336.482421875,31314.580078125,31259.490234375,31259.357421875,31258.623046875,31262.9609375,31272.51171875,31275.859375,31280.8671875,31278.228515625,31286.70703125,31293.021484375,31300.412109375,31307.21484375,31314.5078125,31316.888671875,31325.720703125,31335.236328125,31343.5546875,31356.794921875,31363.501953125,31361.498046875,31366.421875,31372.859375,31383.265625,31390.47265625,31396.310546875,31409.736328125,31417.455078125,31421.16796875,31423.025390625,31423.990234375,31414.03515625,31399.927734375,31388.482421875,31377.40234375,31364.91796875,31344.32421875,31327.3203125,31308.0703125,31299.373046875,31287.48828125,31282.50390625,31273.6484375,31261.103515625,31257.072265625,31254.873046875,31257.267578125,31249.1328125,31245.78515625,31241.755859375,31245.064453125,31245.578125,31248.716796875,31244.796875,31258.91796875,31245.7734375,31239.470703125,31248.65625,31252.333984375,31253.84765625,31251.783203125,31256.083984375,31255.837890625,31210.875,31213.37890625,31210.19140625,31217.630859375,31250.732421875,31272.927734375,31291.103515625,31277.60546875,31291.666015625,31300.77734375,31333.0625,31340.84375,31314.984375,31292.154296875,31283.029296875,31270.912109375,31259.9921875,31264.583984375,31251.697265625,31246.091796875,31221.685546875,31208.908203125,31191.33203125,31196.962890625,31203.3515625,31208.9453125,31208.041015625,31208.775390625,31219.046875,31225.1171875,31210.75390625,31221.318359375,31245.626953125,31270.142578125,31362.03515625,31591.763671875,31948.001953125,32264.67578125,32624.064453125,32865.69140625,32479.416015625,32014.609375,31736.095703125,31644.49609375,31501.421875,31415.427734375,31357.1875,31324.291015625,31298.126953125,31287.29296875,31281.171875,31265.134765625,31261.763671875,31248.619140625,31240.5703125,31248.498046875,31241.05859375,31244.50390625,31239.666015625,31244.30859375,31233.498046875,31239.373046875,31245.236328125,31247.556640625,31249.744140625,31244.5390625,31249.181640625,31262.751953125,31257.353515625,31261.287109375,31260.39453125,31260.3828125,31264.828125,31262.41015625,31266.208984375,31272.12109375,31279.646484375,31276.775390625,31281.294921875,31278.55859375,31279.12109375,31291.505859375,31272.939453125,31268.1875,31273.7578125,31271.779296875,31273.63671875,31270.36328125,31269.740234375,31267.650390625,31269.873046875,31268.6640625,31267.7734375,31265.146484375,31271.62109375,31254.34765625,31260.75,31251.955078125,31253.689453125,31259.2109375,31248.44921875,31258.783203125,31254.59375,31250.59765625,31232.99609375,31236.9296875,31245.45703125,31253.017578125,31247.10546875,31247.177734375,31242.951171875,31242.8671875,31244.515625,31240.228515625,31227.1328125,31224.69140625,31227.927734375,31228.09765625,31234.291015625,31232.240234375,31225.740234375,31221.501953125,31228.24609375,31233.47265625,31234.15625,31232.21484375,31220.708984375,31220.255859375,31231.4453125,31230.8828125,31231.078125,31221.625,31219.92578125,31210.55859375,31208.65234375,31216.0546875,31249.6328125,31284.23828125,31299.140625,31287.4765625,31302.0234375,31307.10546875,31332.267578125,31350.17578125,31308.021484375,31295.818359375,31276.958984375,31260.015625,31255.923828125,31243.111328125,31243.44140625,31214.80859375,31205.318359375,31198.697265625,31196.05859375,31191.673828125,31190.87890625,31187.080078125,31196.9140625,31200.75,31200.578125,31200.96875,31208.138671875,31221.955078125,31249.6328125,31314.0546875,31501.873046875,31830.626953125,32206.0078125,32533.490234375,32964.5078125,32747.3515625,32250.091796875,31848.90234375,31712.49609375,31532.41015625,31429.353515625,31363.18359375,31312.564453125,31299.71484375,31289.80859375,31271.16796875,31242.23046875,31241.681640625,31239.23828125,31239.53125,31258.490234375,31245.8828125,31256.44921875,31257.48828125,31243.708984375,31246.396484375,31242.9765625,31232.0078125,31237.552734375,31249.1328125,31243.697265625,31224.23828125,31230.859375,31235.416015625,31238.626953125,31233.94921875,31244.6015625,31243.46484375,31247.97265625,31238.494140625,31244.259765625,31239.8984375,31245.5546875,31246.201171875,31245.505859375,31246.359375,31251.208984375,31250.671875,31240.716796875,31231.310546875,31248.8515625,31243.134765625,31252.41796875,31250.109375,31252.4921875,31243.197265625,31241.4375,31246.1640625,31243.025390625,31252.931640625,31244.552734375,31240.447265625,31230.48046875,31235.46484375,31248.021484375,31239.421875,31238.908203125,31238.494140625,31231.970703125,31230.9453125,31230.9453125,31236.35546875,31213.708984375,31220.830078125,31219.12109375,31218.0703125,31223.041015625,31221.294921875,31222.087890625,31215.419921875,31218.92578125,31217.849609375,31224.166015625,31221.94140625,31215.994140625,