17069.216796875,17056.439453125,17056.439453125,17089.115234375,17157.62890625,17225.2265625,17162.587890625,17059.65234375,16921.048828125,16879.505859375,16932.896484375,16990.24609375,17024.349609375,17115.888671875,17291.236328125,17284.95703125,17060.408203125,16897.974609375,17063.865234375,17041.78125,16914.794921875,16822.791015625,16979.802734375,17093.376953125,17105.82421875,16975.783203125,16944.48828125,16918.51953125,16923.8203125,16960.599609375,16974.1953125,16996,17061.99609375,17063.40234375,17056.0234375,16933.849609375,17032.27734375,17142.041015625,17026.427734375,16880.591796875,16932.005859375,16948.43359375,16971.12890625,16927.5703125,16949.900390625,17035.685546875,17118.0390625,17116.744140625,17124.0859375,17209.2734375,17156.30859375,17075.5546875,17029.908203125,17162.037109375,17190.865234375,17213.01171875,17210.361328125,17252.806640625,17223.02734375,17102.099609375,16979.5703125,16870.759765625,16868.376953125,16882.423828125,16933.32421875,16974.84375,17005.74609375,16972.119140625,16956.77734375,16969.236328125,17071.830078125,17111.650390625,17150.6171875,17098.5078125,17137.291015625,17127.06640625,17087.63671875,17091.88671875,17332.8515625,17715.255859375,18186.583984375,18258.359375,17866.26953125,17499.318359375,17292.212890625,17325.6328125,17243.90234375,17108.853515625,17000.65234375,17007.005859375,16999.45703125,17064.916015625,17064.4765625,17081.87109375,17116.3046875,17061.703125,17041.70703125,16975.55078125,16904.240234375,16866.166015625,16892.123046875,16918.421875,17010.6328125,17089.17578125,17061.240234375,16868.0234375,16861.048828125,16936.279296875,16965.2421875,16968.40625,16996.244140625,17025.2421875,17054.64453125,17100.328125,17159.7421875,17142.787109375,17173.3125,17043.2109375,17011.451171875,16916.248046875,16930.91796875,16894.11328125,16920.572265625,16987.47265625,17007.333984375,17015.0546875,17029.296875,17089.541015625,17193.173828125,17258.853515625,17348.439453125,17269.1015625,17122.767578125,16878.91796875,16869.0859375,16935.4609375,17085.669921875,17063.4375,17088.283203125,17116.4140625,17169.74609375,17146.904296875,17186.30859375,17316.033203125,17347.205078125,17462.6484375,17295.92578125,17019.158203125,16859.94921875,17044.67578125,17238.80859375,17241.728515625,17234.240234375,17154.29296875,17156.3203125,17135.80078125,16954.296875,16788.173828125,16712.953125,16811.724609375,16880.75,16909.65234375,16934.802734375,16952.4765625,16944.26953125,16931.8828125,16897.15625,16915.72265625,16898.951171875,16892.55078125,16839.5859375,16872.103515625,16904.97265625,16954.46875,16949.75390625,16906.90234375,16934.509765625,16920.181640625,16855.16015625,16737.603515625,16728.6015625,16716.958984375,16796.19921875,16795.52734375,16814.935546875,16896.0078125,16978.189453125,17036.333984375,16982.3671875,16944.26953125,16833.34375,16754.203125,16741.255859375,16760.4453125,16817.501953125,16861.87890625,16848.44140625,16949.130859375,17008.458984375,17028.076171875,16923.638671875,16850.53125,16815.83984375,16806.361328125,16917.982421875,17023.470703125,16912.314453125,16661.564453125,16587.39453125,16690.171875,16762.876953125,16823.4140625,16999.2109375,17012.91796875,16955.189453125,16879.345703125,16926.59375,16961.578125,16854.9765625,16676.015625,16646.466796875,16749.037109375,16887.970703125,17031.056640625,17115.4140625,17108.451171875,17012.708984375,16887.0546875,16901.00390625,16855.625,16824.109375,16831.1953125,16883.853515625,16983.6015625,16962.212890625,16942.0703125,16930.576171875,16909.8828125,16879.1875,16821.251953125,16806.19140625,16808.2421875,16798.287109375,16795.880859375,16806.154296875,16780.2578125,16795.794921875,16802.9296875,16782.9453125,16798.080078125,16813.396484375,16815.44921875,16808.072265625,16833.685546875,16884.5625,16887.28515625,16934.8515625,17168.390625,17453.083984375,17783.037109375,18124.408203125,18341.65234375,17966.859375,17486.224609375,17240.34765625,17218.51953125,17124.29296875,17024.375,16982.783203125,16945.24609375,16933.0546875,16900.794921875,16890.03515625,16913.5,16913.681640625,16965.474609375,17011.21875,17070.16796875,17032.400390625,16865.23828125,16669.28515625,16764.708984375,16774.95703125,16886.78515625,16881.97265625,16881.275390625,16829.88671875,16822.9375,16829.94921875,16849.11328125,16889.94921875,16900.734375,16896.38671875,16933.373046875,16975.3203125,16991.125,17028.234375,16970.5546875,16975.087890625,16966.560546875,17089.37109375,17280.890625,17214.35546875,16835.482421875,16631.345703125,16725.046875,16831.181640625,16908.24609375,16951.37890625,16975.478515625,16986.5703125,17009.154296875,17015.970703125,17042.427734375,17044.65234375,17060.25,17066.95703125,17083.03125,17074.6640625,17099.142578125,17094.416015625,17114.5703125,17107.66796875,17119.76171875,17131.1953125,17155.587890625,17141.3203125,17160.498046875,17166.21484375,17176.09765625,17131.890625,17104.736328125,17109.232421875,17071.87890625,17058.748046875,17017.75390625,17010.279296875,16979.044921875,16993.41015625,16972.265625,16951.939453125,16943.009765625,16924.1875,16905.693359375,16885.869140625,16905.205078125,16913.548828125,16895.787109375,16884.29296875,16893.50390625,16896.544921875,16905.265625,16871.0390625,16873.740234375,16894.76171875,16904.65625,16902.103515625,16920.951171875,16921.890625,16904.251953125,16911.58203125,16907.490234375,16915.6484375,16907.611328125,16899.74609375,16917.46875,16917.970703125,16940.32421875,16932.603515625,16945.783203125,16933.482421875,16927.86328125,16927.65625,16927.7421875,16926.470703125,16943.8046875,16945.9296875,16916.67578125,16925.482421875,16934.08203125,16941.10546875,16925.373046875,16910.3359375,16930.83203125,16941.3984375,16938.490234375,16944.18359375,16969.431640625,16945.318359375,16938.52734375,16949.056640625,16934.705078125,16914.7578125,16925.505859375,16938.3203125,16940.43359375,16941.458984375,16928.81640625,16928.5,16935.107421875,16951.79296875,16935.9140625,16927.7421875,16938.380859375,16949.7890625,16986.3125,16992.1640625,17011.01171875,17020.880859375,17024.986328125,17030.1640625,17061.240234375,17034.048828125,17060.201171875,17119.1015625,17134.93359375,17149.701171875,17123.81640625,17144.38671875,17104.333984375,17086.330078125,17046.41015625,17032.791015625,16964.228515625,16913.744140625,16904.251953125,16904.642578125,16878.89453125,16860.328125,16871.443359375,16841.552734375,16854.94140625,16851.58203125,16851.166015625,16851.2265625,16849.638671875,16830.7421875,16847.66015625,16881.923828125,16930.759765625,17013.771484375,17184.048828125,17511.47265625,17877.091796875,18200.484375,18653.134765625,18321.4609375,17726.93359375,17231.931640625,17124.68359375,17041.548828125,16982.904296875,16905.44921875,16880.310546875,16892.28125,16890.23046875,16898.548828125,16896.69140625,16932.224609375,16960.869140625,16959.634765625,16975.90625,16995.8046875,17024.36328125,17026.841796875,17010.681640625,17021.015625,17025.4140625,17043.576171875,17049.427734375,17028.90625,17042.708984375,17044.529296875,17057.66015625,17066.296875,17071.072265625,17053.5078125,17070.6328125,17090.017578125,17095.197265625,17078.169921875,17103.05078125,17117.8203125,17112.54296875,17116.146484375,17104.431640625,17107.2421875,17108.853515625,17119.06640625,17135.51953125,17116.330078125,17125.3203125,17148.345703125,17136.03125,17164.1640625,17153.083984375,17161.109375,17172.126953125,17164.052734375,17179.603515625,17191.87890625,17207.83203125,17228.6953125,17257.802734375,17295.15625,17308.470703125,17324.64453125,17323.38671875,17344.431640625,17360.775390625,17339.38671875,17355.400390625,17371.169921875,17370.14453125,17357.197265625,17348.20703125,17324.55859375,17317.7421875,17287.375,17256.837890625,17241.984375,17216.30859375,17209.248046875,17188.6796875,17162.5390625,17186.69921875,17169.35546875,17164.236328125,17171.443359375,17145.9140625,17143.6171875,17148.443359375,17145.25390625,17126.89453125,17133.271484375,17144.64453125,17129.265625,17116.3046875,17130.572265625,17127.34765625,17121.166015625,17118.39453125,17125.3203125,17125.0390625,17137.4375,17139.599609375,17130.595703125,17124.29296875,17128.21484375,17142.62890625,17129.533203125,17141.7734375,17149.578125,17148.22265625,17170.880859375,17163.78515625,17169.01171875,17171.28515625,17183.072265625,17183.40234375,17197.7421875,17200.404296875,17219.693359375,17213.951171875,17230.076171875,17214.16015625,17232.140625,17245.89453125,17258.9765625,17257.876953125,17269.603515625,17297.111328125,17298.626953125,17289.990234375,17299.54296875,17326.37890625,17328.248046875,17320.955078125,17326.611328125,17315.04296875,17309.998046875,17320.466796875,17302.572265625,17331.521484375,17331.728515625,17311.744140625,17297.955078125,17298.90625,17303.48828125,17297.05078125,17299.7734375,17295.400390625,17297.72265625,17299.787109375,17294.55859375,17291.994140625,17301.97265625,17283.662109375,17260.796875,17283.125,17271.5703125,17277.287109375,17260.208984375,17261.37109375,17232.82421875,17246.419921875,17218.71484375,17218.703125,17219.044921875,17198.51171875,17194.45703125,17191.4140625,17192.33203125,17211.240234375,17221.66015625,17227.046875,17229.453125,17240.787109375,17255.189453125,17236.671875,17245.759765625,17294.826171875,17352.0546875,17366.615234375,17376.2890625,17369.6796875,17367.1640625,17344.591796875,17349.123046875,17325.193359375,17288.328125,17250.962890625,17192.197265625,17175.546875,17170.294921875,17168.98828125,17165.15234375,17168.255859375,17166.97265625,17154.208984375,17161.4765625,17156.3828125,17162.001953125,17162.306640625,17147.513671875,17158.49609375,17190.779296875,17223.40625,17328.58984375,17562.568359375,17866.18359375,18186.1796875,18547.98828125,18785.69140625,18393.408203125,17899.2734375,17572.888671875,17548.9609375,17429.998046875,17339.314453125,17289.806640625,17269.1875,17249.265625,17252.208984375,17227.27734375,17246.6875,17224.73828125,17221.0234375,17227.55859375,17214.37890625,17224.212890625,17229.16015625,17220.890625,17217.958984375,17236.29296875,17235.21875,17233.923828125,17230.783203125,17242.302734375,17246.8828125,17258.5234375,17260.748046875,17267.0625,17271.66796875,17269.126953125,17275.173828125,17265.279296875,17276.859375,17294.607421875,17291.11328125,17302.509765625,17297.220703125,17305.576171875,17310.62109375,17308.642578125,17312.380859375,17315.470703125,17322.93359375,17318.951171875,17338.568359375,17336.650390625,17342.294921875,17345.82421875,17362.64453125,17352.603515625,17367.798828125,17380.34375,17395.125,17393.5859375,17407.64453125,17400.681640625,17415.5234375,17443.99609375,17440.90625,17454.8671875,17459.228515625,17465.5078125,17467.4609375,17472.8359375,17471.98046875,17487.884765625,17485.625,17477.013671875,17472.51953125,17458.80078125,17421.984375,17404.00390625,17383.58203125,17353.99609375,17331.826171875,17304.599609375,17291.896484375,17275.392578125,17264.875,17256.423828125,17242.791015625,17226.251953125,17230.185546875,17226.484375,17221.537109375,17214.732421875,17205.73046875,17202.91015625,17194.443359375,17208.271484375,17211.998046875,17202.494140625,17214.76953125,17195.470703125,17202.6640625,17210.787109375,17196.80078125,17213.87890625,17223.478515625,17210.80078125,17223.4296875,17225.03125,17215.392578125,17212.302734375,17225.04296875,17233.12890625,17233.826171875,17239.46875,17232.115234375,17240.54296875,17229.96484375,17226.826171875,17241.5078125,17234.986328125,17244.720703125,17230.9921875,17237.3671875,17239.39453125,17231.822265625,17229.025390625,17235.876953125,17241.654296875,17238.234375,17228.439453125,17240.763671875,17230.52734375,17215.111328125,17217.689453125,17234.142578125,17223.30859375,17211.375,17222.46484375,17230.185546875,17231.11328125,17223.919921875,17220.595703125,17225.177734375,17222.673828125,17215.515625,17223.0390625,17221.20703125,17217.310546875,17205.388671875,17214.916015625,17216.95703125,17212.83984375,17210.373046875,17216.322265625,17215.013671875,17211.642578125,17203.88671875,17216.552734375,17198.68359375,17216.796875,17229.537109375,17236.169921875,17247.140625,17268.064453125,17278.8984375,17276.7734375,17292.896484375,17288.646484375,17295.205078125,17347.509765625,17382.23828125,17384.09375,17409.427734375,17408.181640625,17398.630859375,17387.234375,17370.79296875,17345.421875,17307.419921875,17253.40625,17210.861328125,17203.373046875,17193.98046875,17202.73828125,17189.791015625,17190.755859375,17183.9765625,17185.125,17182.681640625,17173.703125,17168.267578125,17183.951171875,17183.109375,17192.576171875,17206.927734375,17234.142578125,17317.3515625,17468.1953125,17741.248046875,18099.564453125,18356.041015625,18738.408203125,18484.787109375,17977.400390625,17581.8671875,17554.76171875,17491.29296875,17395.89453125,17352.017578125,17300.017578125,17289.94140625,17284.029296875,17280.595703125,17266.904296875,17269.56640625,17264.521484375,17259.2578125,17251.146484375,17240.470703125,17240.751953125,17251.169921875,17244.390625,17252.025390625,17255.775390625,17258.572265625,17266.841796875,17269.248046875,17261.6640625,17277.45703125,17276.552734375,17287.876953125,17292.126953125,17288.560546875,17290.40625,17304.16015625,17304.76953125,17306.46875,17311.20703125,17321.615234375,17323.12890625,17329.9453125,17340.302734375,17335.89453125,17347.5234375,17356.40234375,17373.736328125,17382.103515625,17389.310546875,17385.9140625,17388.736328125,17400.755859375,17426.296875,17426.162109375,17428.88671875,17427.54296875,17440.22265625,17452.4375,17475.291015625,17464.626953125,17488.947265625,17496.544921875,17487.54296875,17509.65234375,17522.07421875,17524.689453125,17519.16796875,17544.806640625,17553.162109375,17543.048828125,17542.92578125,17542.03515625,17530.24609375,17524.25,17486.95703125,17466.484375,17440.380859375,17424.978515625,17402.33203125,17371.927734375,17367.666015625,17348.109375,17325.71875,17319.18359375,17327.34375,17321.041015625,17299.46875,17289.708984375,17298.845703125,17301.94921875,17294.66796875,17292.201171875,17289.671875,17289.28125,17295.560546875,17300.970703125,17301.263671875,17287.6328125,17303.6953125,17296.21875,17301.875,17302.130859375,17313.576171875,17305.44140625,17312.2578125,17307.091796875,17309.0703125,17323.654296875,17331.5078125,17335.564453125,17323.654296875,17328.724609375,17336.994140625,17326.48828125,17333.939453125,17337.873046875,17335.673828125,17339.44921875,17344.724609375,17346.875,17334.953125,17325.6953125,17326.244140625,17322.029296875,17321.48046875,17331.75390625,17324.119140625,17321.6640625,17313.30859375,17301.337890625,17296.537109375,17296.4765625,17287.302734375,17275.673828125,17269.810546875,17259.94140625,17252.478515625,17255.4453125,17248.3984375,17239.359375,17222.208984375,17225.751953125,17210.494140625,17202.005859375,17204.5703125,17195.115234375,17190.12109375,17201.736328125,17202.201171875,17192.35546875,17197.326171875,17189.1796875,17184.01171875,17172.37109375,17190.12109375,17194.75,17190.33984375,17180.947265625,17185.6015625,17171.40625,17172.396484375,17198.62109375,17201.650390625,17199.01171875,17227.107421875,17253.61328125,17267.44140625,17274.94140625,17285.373046875,17288.046875,17280.583984375,17292.45703125,17308.10546875,17340.14453125,17360.32421875,17372.869140625,17363.0234375,17358.50390625,17353.080078125,17334.94140625,17313.943359375,17293.421875,17233.958984375,17194.701171875,17184.76953125,17184.16015625,17169.439453125,17159.5703125,17166.6796875,17166.703125,17182.546875,17176.634765625,17178.943359375,17187.396484375,17193.576171875,17181.533203125,17186.064453125,17220.890625,17254.787109375,17377.81640625,17667.201171875,17994.208984375,18293.8671875,18651.33984375,18772.525390625,18326.689453125,17894.314453125,17574.427734375,17548.177734375,17417.74609375,17371.646484375,17321.69921875,17291.833984375,17273.537109375,17266.46484375,17235.486328125,17233.12890625,17233.056640625,17224.4921875,17211.69140625,17218.875,17216.529296875,17210.482421875,17213.572265625,17188.77734375,17199.623046875,17214.025390625,17231.578125,17217.54296875,17219.595703125,17206.51171875,17218.140625,17217.5546875,17223.552734375,17238.345703125,17225.82421875,17232.287109375,17235.486328125,17221.4765625,17220.193359375,17231.529296875,17249.716796875,17251.146484375,17245.16015625,17249.216796875,17260.625,17269.626953125,17288.62109375,17279.814453125,17283.052734375,17294.619140625,17290.880859375,17307.25,17312.0859375,17315.53125,17317.73046875,17329.787109375,17340.193359375,17331.01953125,17355.646484375,17368.666015625,17372.66015625,17371.255859375,17384.533203125,17398.91015625,17422.205078125,17427.103515625,17435.775390625,17440.478515625,17459.521484375,17460.03515625,17456.357421875,17461.76953125,17439.3671875,17431,17416.68359375,17383.12890625,17353.58203125,17340.681640625,17322.603515625,17285.0546875,17274.26953125,17256.7890625,17244.025390625,17229.94140625,17216.259765625,17219.64453125,17204.66796875,17199.35546875,17193.234375,17197.7421875,17193.796875,17197.607421875,17189.814453125,17195.2265625,17200.076171875,17185.5390625,17191.525390625,17206.048828125,17199.599609375,17201.76171875,17201.96875,17206.611328125,17209.712890625,17215.89453125,17221.708984375,17204.814453125,17216.650390625,17234.8515625,17230.783203125,17225.06640625,17230.69921875,17245.1484375,17253.19921875,17239.56640625,17242.27734375,17236.5625,17238.052734375,17235.974609375,17246.30859375,17236.59765625,17245.83203125,17253.052734375,17255.54296875,17258.90234375,17244.6484375,17254.884765625,17258.744140625,17255.189453125,17243.669921875,17240.71484375,17238.748046875,17227.595703125,17239.919921875,17252.783203125,17257.767578125,17272.193359375,17277.921875,17243.755859375,17224.345703125,17182.81640625,17230.662109375,17244.671875,17266.87890625,17277.591796875,17270.298828125,17254.236328125,17251.01171875,17250.779296875,17240.396484375,17245.662109375,17242.705078125,17230.111328125,17213.669921875,17205.595703125,17212.583984375,17234.9609375,17243.14453125,17219.9375,17227.1796875,17232.005859375,17237.990234375,17229.720703125,17220.560546875,17213.42578125,17226.056640625,17219.033203125,17214.978515625,17210.091796875,17198.732421875,17201.02734375,17192.94140625,17170.208984375,17167.486328125,17163.96875,17167.619140625,17155.880859375,17156.357421875,17123.830078125,17140.076171875,17129.923828125,17130.279296875,17142.298828125,17134.822265625,17139.404296875,17135.873046875,17134.9453125,17130.0703125,17133.099609375,17141.041015625,17137.75390625,17148.52734375,17151.1796875,17169.37890625,17186.357421875,17208.748046875,17226.935546875,17234.607421875,17262.798828125,17260.955078125,17248.8125,17271.59375,17311.134765625,17339.15625,17358.69921875,17369.19140625,17351.798828125,17329.359375,17312.234375,17305.857421875,17291.76171875,17242.9375,17217.359375,17167.876953125,17169.599609375,17145.828125,17147.52734375,17133.248046875,17119.08984375,17103.845703125,17106.60546875,17096.443359375,17100.33984375,17095.1484375,17102.208984375,17095.63671875,17142.212890625,17162.134765625,17230.734375,17374.1015625,17669.8515625,18024.63671875,18335.97265625,18767.9921875,18697.818359375,18259.775390625,17820.939453125,17644.8359375,17592.947265625,17459.595703125,17405.34765625,17360.80078125,17332.876953125,17315.005859375,17318.548828125,17292.8125,17281.439453125,17264.619140625,17278.861328125,17266.68359375,17248.177734375,17238.822265625,17239.822265625,17232.17578125,17234.44921875,17228.083984375,17213.181640625,17208.748046875,17215.013671875,17203.349609375,17211.228515625,17200.208984375,17205.328125,17205.169921875,17207.880859375,17201.064453125,17211.8515625,17220.98828125,17227.62109375,17236.048828125,17230.662109375,17253.11328125,17264.19140625,17276.150390625,17287.265625,17294.400390625,17318.279296875,17309.728515625,17333.9765625,17331.94921875,17323.12890625,17339.705078125,17357.404296875,17318.03515625,17314.603515625,17316.263671875,17317.314453125,17349.171875,17385.90234375,17384.44921875,17426.345703125,17431.0234375,17435.703125,17438.96484375,17425.33203125,17425.455078125,17423.537109375,17435.25,17448.1015625,17451.435546875,17465.177734375,17467.83984375,17465.068359375,17462.05078125,17458.203125,17464.982421875,17433.541015625,17408.365234375,17387.392578125,17363.939453125,17337.15234375,17319.599609375,17299.212890625,17262.384765625,17270.4453125,17249.533203125,17222.16015625,17218.88671875,17215.001953125,17204.435546875,17217.7265625,17201.00390625,17198.78125,17159.58203125,17189.09375,17193.271484375,17176.830078125,17171.650390625,17186.50390625,17171.125,17168.81640625,17181.337890625,17175.62109375,17175.2421875,17173.41015625,17207.576171875,17202.970703125,17200.55078125,17188.12890625,17189.38671875,17210.4453125,17190.828125,17177.697265625,17180.0546875,17150.873046875,17144.94921875,17138.6953125,17138.03515625,17148.919921875,17138.634765625,17127.884765625,17138.169921875,17116.18359375,17092.65625,17076.97265625,17078.4140625,17048.12109375,17041.755859375,17035.13671875,17039.86328125,17031.875,17029.015625,17058.515625,17012.35546875,17035.83203125,17030.43359375,17013.283203125,17012.34375,17007.212890625,16979.765625,17001.3984375,16998.259765625,16989.634765625,16966.646484375,16971.8984375,16964.349609375,16965.669921875,16968.833984375,16969.064453125,16964.998046875,16958.927734375,16954.833984375,16967.55078125,16923.05078125,16925.7265625,16936.671875,16916.638671875,16889.69140625,16853.009765625,16865.482421875,16870.001953125,16827.873046875,16841.662109375,16804.029296875,16793.92578125,16774.517578125,16767.3828125,16731.203125,16728.9296875,16744.455078125,16737.517578125,16725.55859375,16719.439453125,16732.09375,16727.318359375,16719.59765625,16737.333984375,16727.611328125,16741.20703125,16745.591796875,16755.5234375,16759.126953125,16798.591796875,16810.52734375,16828.384765625,16855.4296875,16866.5078125,16891.87890625,16903.53125,16924.67578125,16949.8515625,16948.384765625,16983.748046875,16967.83203125,16969.45703125,16962.615234375,16957.44921875,16919.033203125,16886.759765625,16821.03125,16809.513671875,16801.181640625,16791.8984375,16802.794921875,16803.3203125,16813.189453125,16833.11328125,16807.533203125,16800.205078125,16796.234375,16795.001953125,16811.564453125,16821.763671875,16846.939453125,16867.19140625,16886.529296875,17021.00390625,17267.1484375,17597.662109375,17896.734375,18302.466796875,18267.3125,17812.841796875,17376.69140625,17308.41015625,17283.541015625,17150.298828125,17042.0625,16984.431640625,16962.298828125,16939.8828125,16973.962890625,16979.544921875,16946.759765625,16960.564453125,16987.779296875,16943.830078125,16924.822265625,16923.845703125,16934.49609375,16976.748046875,16991.8828125,17012.1484375,17026.244140625,17029.67578125,16986.01953125,16962.494140625,16963.568359375,16962.505859375,16950.767578125,17000.275390625,16973.681640625,16965.974609375,16963.91015625,16945.294921875,16953.50390625,16938.44140625,16923.736328125,16937.44140625,16974.0859375,16985.408203125,16986.068359375,17020.185546875,17013.943359375,17006.564453125,16986.38671875,16991.150390625,17017.681640625,16971.435546875,16989.84375,17020.978515625,17018.853515625,17012.5625,17035.369140625,16987.423828125,16981.4765625,17027.05078125,17066.931640625,17096.541015625,17050.22265625,17159.228515625,17183.51171875,17185.283203125,17153.646484375,17151.556640625,17171.173828125,17168.046875,17140.13671875,17164.529296875,17174.203125,17162.07421875,17112.408203125,17140.1484375,17125.33203125,17104.2734375,17111.931640625,17088.271484375,17027.513671875,16930.74609375,16946.41796875,17053.103515625,17053.275390625,17022.34765625,17032.92578125,17006.162109375,16986.3984375,16981.01171875,16962.017578125,16996.720703125,16989.66015625,16955.32421875,16950.009765625,16984.39453125,17012.294921875,17002.9375,17000.80078125,17026,17012.197265625,17019.158203125,17042.685546875,17048.548828125,17065.943359375,17060.861328125,17050.501953125,17062.716796875,17063.767578125,17025.755859375,17044.296875,17055.51171875,17062.7421875,17072.111328125,17066.796875,17075.470703125,17077.693359375,17096.259765625,17087.427734375,17066.015625,17039.998046875,17039.826171875,17056.109375,17020.306640625,17034.66015625,17016.19140625,17075.970703125,17039.49609375,17021.98046875,17039.94921875,17095.90625,17049.7578125,16951.98828125,16957.546875,17022.65234375,17119.93359375,17094.416015625,17051.748046875,17033.353515625,17051.00390625,17037.17578125,17108.376953125,17012.1484375,16966.353515625,16963.30078125,16981.244140625,17004.46484375,17038.32421875,17090.091796875,17144.826171875,17147.5390625,17104.615234375,17138.5,17146.548828125,17146.4140625,17199.29296875,17197.095703125,17192.111328125,17148.369140625,17106.337890625,17053.91015625,17018.1328125,16998.234375,17046.947265625,16992.884765625,16963.3359375,16930.794921875,16923.234375,16910.568359375,16917.84765625,16925.201171875,16970.005859375,16921.328125,16960.380859375,16997.330078125,17001.5078125,17008.51953125,16956.703125,16968.185546875,17033.830078125,17111.271484375,17255.51953125,17527.03515625,17868.37109375,18161.48046875,18555.109375,18412.21875,17956.048828125,17542.81640625,17500.05078125,17482.107421875,17322.896484375,17280.498046875,17210.3359375,17191.7578125,17167.33984375,17153.328125,17135.03125,17124.390625,17100.107421875,17097.115234375,17111.3828125,17103.98046875,17098.154296875,17093.537109375,17113.958984375,17109.4765625,17073.833984375,17060.677734375,17117.9296875,17137.216796875,17127.775390625,17122.791015625,17112.236328125,17124.501953125,17084.265625,17092.033203125,17117.84375,17109.158203125,17089.919921875,17093.291015625,17090.71484375,17049.318359375,17022.34765625,17051.2109375,17046.521484375,17040.474609375,17030.763671875,17021.138671875,17031.32421875,17037.921875,17018.951171875,16999.408203125,17031.751953125,17008.666015625,17017.876953125,17048.095703125,17052.005859375,17043.02734375,17016.2265625,17022.138671875,17081.67578125,17080.1484375,17102.134765625,17085.853515625,17086.806640625,17097.5546875,17120.580078125,17149.6640625,17162.306640625,17180.1640625,17176.462890625,17174.509765625,17201.6640625,17205.205078125,17210.958984375,17206.720703125,17173.59375,17162.134765625,17122.27734375,17088.736328125,17123.634765625,17098.421875,17094.7578125,17077.546875,17071.78125,17063.9140625,17062.900390625,17056.939453125,17068.01953125,17083.580078125,17091.654296875,17099.77734375,17103.9921875,17108.20703125,17075.080078125,17055.853515625,17062.509765625,17082.384765625,17078.53515625,17062.92578125,17033.583984375,17043.8828125,17074.224609375,17091.38671875,17108.865234375,17109.134765625,17092.693359375,17044.95703125,17025.951171875,16983.69921875,17011.90234375,17011.59765625,17019.48828125,17050.625,17044.08984375,17045.212890625,17034.1953125,17051.87109375,17046.435546875,17053.3125,17055.119140625,17044.322265625,17036.08984375,17055.791015625,17044.58984375,17044.5546875,17030.958984375,17038.140625,17051.748046875,17059.76171875,17042.673828125,17042.232421875,17029.224609375,17035.599609375,17033.33984375,17006.515625,17004.060546875,16996.5,16974.953125,16977.37109375,16971.69140625,16973.8046875,16980.51171875,16963.642578125,16944.134765625,16975.7109375,16961.626953125,16943.255859375,16981.365234375,16977.08984375,16995.609375,16967.783203125,16964.533203125,16972.119140625,17008.3984375,17017.65625,17030.62890625,17036.236328125,17049.7578125,17065.8203125,17086.79296875,17121.41015625,17138.830078125,17167.888671875,17179.787109375,17169.671875,17194.541015625,17175.388671875,17157.322265625,17149.578125,17123.328125,17090.666015625,17063.732421875,17022.37109375,17032.607421875,17025.107421875,17047.326171875,17060.80078125,17109.990234375,17124.48828125,17109.09765625,17006.943359375,16869.20703125,16792.423828125,16820.763671875,16838.876953125,16858.201171875,16888.201171875,16917.56640625,17015.3359375,17246.50390625,17547.921875,17883.69921875,18189.955078125,18532.572265625,18209.193359375,17768.060546875,17355.865234375,17278.470703125,17148.345703125,17050.6484375,16985.201171875,16970.73828125,16936.451171875,16928.755859375,16903.275390625,16880.275390625,16873.01953125,16878.13671875,16852.265625,16874.154296875,16918.91015625,16923.099609375,16927.65625,16947.322265625,16849.443359375,16883.40234375,16871.759765625,16885.625,16927.25390625,16915.294921875,16964.923828125,16922.171875,16838.853515625,16810.1484375,16836.86328125,16830.083984375,16910.75,16919.265625,16919.47265625,16851.556640625,16880.568359375,16958.046875,17021.08984375,17004.451171875,16918.2265625,16861.181640625,16869.68359375,16942.73046875,16945.41796875,16912.25390625,16910.396484375,16961.138671875,16977.580078125,16959.671875,17007.73828125,17017.65625,17073.564453125,17135.8125,17138.951171875,17187.5546875,17185.197265625,17192.576171875,17195.666015625,17233.666015625,17249.765625,17248.666015625,17243.353515625,17276.712890625,17255.23828125,17253.087890625,17245.83203125,17247.701171875,17267.611328125,17302.9375,17271.533203125,17294.912109375,17187.517578125,17150.298828125,17135.556640625,17094.708984375,17070.583984375,17113.580078125,17167.326171875,17216.6640625,17094.341796875,16933.71484375,16828.3359375,16862.806640625,16997.037109375,16981.439453125,16991.076171875,16973.951171875,16797.93359375,16861.951171875,16915.24609375,16885.283203125,16860.14453125,16919.69140625,16915.466796875,16950.669921875,16940.71484375,16947.08984375,16916.138671875,16959.20703125,16936.169921875,16924.126953125,16961.78515625,16963.458984375,17011.390625,17012.123046875,16935.291015625,16906.353515625,16858.556640625,16862.671875,16889.814453125,16893.857421875,16943.05859375,16986.751953125,16999.408203125,17050.501953125,16984.345703125,17025.876953125,16994.802734375,16905.755859375,16883.5,16954.822265625,16988.98828125,16894.9453125,16907.416015625,16926.3984375,16936.341796875,16977.005859375,16971.1171875,16929.232421875,16936.8671875,16912.326171875,16971.80078125,16960.61328125,16948.03125,16937.587890625,16952.83203125,16953.0390625,16967.74609375,16970.2265625,16962.322265625,17013.02734375,17062.021484375,16967.05078125,16871.796875,16893.41796875,16911.69140625,16948.140625,16940.212890625,16937.513671875,16956.947265625,16994.509765625,17060.34765625,17054.66796875,17070.474609375,17101.732421875,17182.08203125,17165.34765625,17157.859375,17008.984375,17071.09765625,17124.525390625,17118.576171875,17115.888671875,17059.052734375,16959.439453125,16943.560546875,16991.162109375,16940.75,16952.306640625,16901.6875,16861.267578125,16765.513671875,16817.63671875,16816.890625,16905.70703125,17063.68359375,17082.384765625,16897.228515625,16583.791015625,16503.24609375,16646.58984375,16715.775390625,16778.009765625,16823.21875,16864.1015625,16965.546875,17210.787109375,17498.537109375,17810.21484375,18144.3671875,18322.072265625,17920.150390625,17526.88671875,17226.044921875,17186.931640625,17021.529296875,16907.208984375,16847.306640625,16841.552734375,16835.470703125,16841.61328125,16801.279296875,16786.5859375,16797.310546875,16856.80859375,16868.681640625,16786.060546875,16726.87890625,16768.263671875,16804.98046875,16787.623046875,16798.91015625,16819.638671875,16791.38671875,16851.703125,16887.603515625,16897.375,16863.185546875,16777.5703125,16710.119140625,16788.748046875,16787.9296875,16797.578125,16821.458984375,16853.572265625,16835.861328125,16834.19921875,16846.29296875,16833.30859375,16845.9375,16888.373046875,16873.556640625,16859.130859375,16900.41796875,16888.447265625,16871.98046875,16898.609375,16904.88671875,16905.216796875,16906.353515625,16922.392578125,16936.279296875,16941.849609375,16929.623046875,16967.037109375,16945.4296875,16968.8828125,16980.62109375,16973.462890625,16978.947265625,16977.640625,17006.173828125,17020.90625,17025.4375,17015.32421875,16999.6875,17012.623046875,17016.66796875,17016.0078125,17008.947265625,16998.271484375,16990.171875,16962.46875,16941.240234375,16914.158203125,16867.802734375,16840.990234375,16804.9453125,16789.40625,16778.62109375,16786.23046875,16756.572265625,16708.787109375,16703.4140625,16697.111328125,16665.705078125,16582.705078125,16657.021484375,16654.1015625,16658.072265625,16675.513671875,16657.94921875,16623.404296875,16648.421875,16651.072265625,16664.619140625,16685.482421875,16711.341796875,16718.767578125,16714.162109375,16693.275390625,16709.240234375,16697,16658.486328125,16651.62109375,16654.17578125,16649.77734375,16618.12890625,16640.298828125,16650.15625,16642.033203125,16655.189453125,16624.138671875,16656.484375,16656.630859375,16633.03125,16679.9609375,16632.56640625,16638.34375,16679.458984375,16754.326171875,16748.046875,16720.794921875,16715.15234375,16730.666015625,16690.685546875,16642.337890625,16686.5078125,16688.486328125,16734.3046875,16711.8671875,16719.68359375,16744.078125,16756.609375,16757.63671875,16762.326171875,16781.185546875,16803.80859375,16813.177734375,16816.68359375,16825.771484375,16879.5546875,16886.78515625,16868.767578125,16887.298828125,16879.7734375,16878.392578125,16870.61328125,16813.177734375,16787.708984375,16729.50390625,16697.318359375,16744.712890625,16820.73828125,16868.353515625,16881.88671875,16844.533203125,16894.75,16976.89453125,16924.701171875,16833.91796875,16693.166015625,16567.765625,16449.818359375,16386.080078125,16460.212890625,16547.4765625,16637.28125,16723.384765625,16892.587890625,17261.2109375,17697.1640625,18230.251953125,18555.611328125,18221.591796875,17611.171875,17006.748046875,16644.78125,16515.779296875,16492.97265625,16574.533203125,16630.16015625,16654.845703125,16675.978515625,16717.435546875,16747.619140625,16753.88671875,16728.111328125,16754.716796875,16835.580078125,16900.0625,16895.6171875,16878.4296875,16828.62890625,16824.28125,16811.515625,16810.685546875,16847.904296875,16922.35546875,16927.400390625,16835.384765625,16891.072265625,16887.3828125,16872.591796875,16948.82421875,17042.794921875,16997.9296875,16921.439453125,16882.044921875,16908.380859375,16921.31640625,17007.115234375,17029.93359375,17066.22265625,17072.794921875,17051.748046875,16972.19140625,16955.298828125,17014.236328125,17049.708984375,17029.822265625,17056.6953125,17094.904296875,17146.28125,17158.32421875,17181.2890625,17210.32421875,17203.43359375,17195.361328125,17221.671875,17238.576171875,17310.31640625,17432.13671875,17485.357421875,17458.763671875,17349.916015625,17276.00390625,17255.873046875,17264.765625,17293.203125,17317.27734375,17332.6328125,17365.30859375,17422.279296875,17444.791015625,17508.6875,17517.6171875,17450.984375,17318.146484375,17224.08984375,17191.244140625,17196.9609375,17169.048828125,17127.787109375,17057.3671875,17083.923828125,17223.650390625,17284.1015625,17315.787109375,17232.408203125,17109.66015625,17072.673828125,16988.5,16943.5234375,17030.25,17073.736328125,17085.23046875,17183.3046875,17207.85546875,17217.0546875,17164.17578125,17091.484375,17133.0390625,17116.31640625,17130.2421875,17191.87890625,17206.0234375,17282.306640625,17304.9296875,17253.7109375,17113.30078125,17022.310546875,17027.171875,17117.306640625,17271.1796875,17362.94921875,17357.318359375,17225.017578125,17130.486328125,17024.86328125,17030.3359375,17064.158203125,17156.8828125,17204.142578125,17170.02734375,17082.201171875,17037.46875,17026.21875,17086.525390625,17090.287109375,17135.359375,17135.373046875,17134.787109375,17129.802734375,17168.5859375,17268.173828125,17377.583984375,17328.748046875,17162.46484375,17080.208984375,17077.9140625,17153.03515625,17196.88671875,17210.763671875,17242.64453125,17269.345703125,17308.763671875,17361.435546875,17382.7265625,17421.8515625,17396.30859375,17350.783203125,17308.03125,17323.763671875,17273.755859375,17243.572265625,17159.912109375,17099.65625,17075.421875,17105.591796875,17114.826171875,17107.291015625,17069.998046875,17097.115234375,17155.294921875,17133.943359375,17187.873046875,17245.61328125,17221.8671875,17270.43359375,17305.208984375,17266.0859375,17292.689453125,17528.79296875,17753.048828125,18025.69921875,18197.736328125,18598.4609375,18540.8671875,18153.736328125,17641.794921875,17591.224609375,17502.921875,17335.9296875,17238.9921875,17239.798828125,17309.86328125,17268.11328125,17300.3359375,17174.607421875,17223.19921875,17293.49609375,17290.466796875,17286.826171875,17252.599609375,17230.52734375,17235.12109375,17183.095703125,17177.734375,17087.35546875,17121.5703125,17104.787109375,17020.697265625,17007.505859375,17252.771484375,17271.923828125,17206.5,17135.212890625,17049.318359375,17056.109375,17156.125,17128.080078125,17179.9453125,17093.42578125,17104.8359375,17146.623046875,17230.52734375,17248.23828125,17247.15234375,17251.85546875,17286.65625,17251.890625,17222.953125,17212.75390625,17261.041015625,17293.837890625,17348.5,17295.193359375,17339.0078125,17373.7109375,17375.54296875,17387.869140625,17336.419921875,17389.908203125,17332.36328125,17389.701171875,17416.892578125,17403.50390625,17330.568359375,17319.8671875,17329.4453125,17365.3203125,17361.19140625,17455.22265625,17475.42578125,17434.48046875,17421.033203125,17349.697265625,17375.861328125,17345.201171875,17391.9609375,17293.275390625,17269.787109375,17255.53125,17234.64453125,17250.53515625,17253.13671875,17213.79296875,17148.13671875,17158.04296875,17106.41015625,17164.224609375,17305.796875,17200.392578125,17221.76953125,17227.583984375,17116.9765625,17139.2578125,17175.8046875,17115.828125,17084.130859375,17124.3671875,17218.837890625,17219.9609375,17296.6953125,17282.90625,17209.6640625,17200.02734375,17164.84765625,17185.111328125,17253.833984375,17229.916015625,17214.599609375,17164.982421875,17151.642578125,17182.876953125,17188.12890625,17234.826171875,17281.353515625,17356.255859375,17361.619140625,17329.5546875,17219.875,17125.099609375,17180.8125,17263.068359375,17181.912109375,17132.037109375,17147.37890625,17117.3671875,17171.529296875,17191.744140625,17138.51171875,17218.59375,17289.623046875,17248.8125,17172.08984375,17153.03515625,17167.705078125,17302.15625,17306.822265625,17321.67578125,17368.703125,17307.896484375,17295.462890625,17179.689453125,17255.494140625,17311.390625,17311.732421875,17395.357421875,17361.3125,17422.876953125,17407.021484375,17374.95703125,17393.376953125,17407.64453125,17390.677734375,17395.771484375,17260.587890625,17242.5234375,17225.580078125,17246.578125,17265.595703125,17233.140625,17181.837890625,17246.224609375,17174.314453125,17194.787109375,17163.8828125,17213.14453125,17162.611328125,17188.189453125,17251.671875,17248.935546875,17216.95703125,17295.107421875,17467.8046875,17767.279296875,18160.3203125,18444.44140625,18844.263671875,18610.39453125,18191.701171875,17795.3359375,17759.75390625,17637.373046875,17520.21875,17445.548828125,17408.353515625,17361.033203125,17357.490234375,17335.208984375,17334.3671875,17328.578125,17326.072265625,17331.0078125,17317.27734375,17285.873046875,17280.962890625,17287.669921875,17361.47265625,17362.2421875,17392.046875,17291.443359375,17333.70703125,17277.359375,17343.931640625,17377.14453125,17343.919921875,17387.306640625,17347.546875,17307.34765625,17346.716796875,17373.529296875,17364.685546875,17362.71875,17353.470703125,17356.146484375,17362.25390625,17380.02734375,17376.251953125,17382.568359375,17410.41796875,17385.609375,17408.20703125,17415.609375,17413.30078125,17470.673828125,17429.86328125,17407.90234375,17380.490234375,17360.82421875,17450.361328125,17465.080078125,17476.953125,17485.63671875,17526.203125,17559,17514.501953125,17487.689453125,17475.009765625,17519.693359375,17541.716796875,17588.5859375,17569.419921875,17554.505859375,17558.76953125,17529.63671875,17505.05859375,17462.892578125,17413.97265625,17359.982421875,17325.3515625,17296.060546875,17236.818359375,17115.3515625,17022.603515625,16986.3984375,16993.2265625,16977.078125,16946.00390625,16883.15625,16842.224609375,16827.431640625,16837.09375,16871.369140625,16897.693359375,16916.3828125,16957.791015625,16981.244140625,16992.2734375,16941.19140625,16948.298828125,16948.201171875,16974.85546875,17049.404296875,17104.736328125,17112.859375,17063.927734375,17036.357421875,17054.38671875,17061.056640625,17044.638671875,17056.31640625,17094.794921875,17120.43359375,17148.662109375,17169.453125,17184.07421875,17205.70703125,17236.916015625,17281.525390625,17315.298828125,17324.435546875,17280.15625,17306.7734375,17318.29296875,17354.765625,17390.1171875,17411.248046875,17400.6953125,17400.681640625,17401.09765625,17431.146484375,17460.267578125,17444.814453125,17440.099609375,17412.580078125,17417.978515625,17414.9375,17408.060546875,17417.318359375,17416.87890625,17423.279296875,17423.40234375,17430.865234375,17445.267578125,17455.685546875,17451.935546875,17467.2421875,17463.345703125,17460.0234375,17510.677734375,17495.103515625,17485.52734375,17500.748046875,17495.6171875,17499.34375,17540.775390625,17579.16796875,17555.263671875,17474.021484375,17478.271484375,17527.53515625,17582.734375,17600.21484375,17608.8984375,17622.666015625,17588.96484375,17576.162109375,17620.91796875,17663.658203125,17640.451171875,17602.14453125,17566,17528.853515625,17547.494140625,17490.05859375,17471.65234375,17444.693359375,17413.568359375,17330.947265625,17294.64453125,17319.7578125,17372.26953125,17369.765625,17404.419921875,17437.546875,17378.732421875,17332.14453125,17314.28515625,17347.388671875,17373.48046875,17438.451171875,17677.498046875,17973.041015625,18299.73046875,18606.25390625,18897.740234375,18653.66015625,18165.951171875,17829.318359375,17782.376953125,17627.61328125,17528.328125,17449.982421875,17405.2265625,17385.681640625,17388.7734375,17373.150390625,17390.947265625,17386.048828125,17375.361328125,17382.103515625,17357.80859375,17353.091796875,17359.712890625,17358.271484375,17350.90625,17349.037109375,17355.21875,17354.876953125,17346.3984375,17349.671875,17350.576171875,17354.595703125,17344.396484375,17328.90625,17347.15625,17354.888671875,17358.80859375,17360.53125,17361.044921875,17365.30859375,17357.185546875,17358.064453125,17365.662109375,17374.505859375,17367.666015625,17367.0546875,17365.33203125,17368.80078125,17371.68359375,17368.12890625,17351.455078125,17366.615234375,17382.115234375,17389.150390625,17398.04296875,17419.76171875,17420.2265625,17380.466796875,17399.265625,17372.587890625,17393.462890625,17409.880859375,17399.412109375,17389.517578125,17412.494140625,17426.65234375,17438.658203125,17453.70703125,17515.41796875,17514.84375,17457.861328125,17385.302734375,17396.6640625,17390.740234375,17395.587890625,17372.734375,17342.783203125,17358.919921875,17334.4765625,17299.505859375,17286.998046875,17269.46875,17259.390625,17268.39453125,17235.267578125,17222.611328125,17231.40625,17196.984375,17182.25390625,17170.91796875,17171.796875,17207.037109375,17203.826171875,17204.130859375,17205.962890625,17196.458984375,17170.7109375,17161.037109375,17153.6953125,17180.71484375,17207.2578125,17211.619140625,17201.859375,17227.94921875,17199.439453125,17141.931640625,17115.205078125,17122.095703125,17163.099609375,17214.611328125,17187.787109375,17164.822265625,17169.244140625,17178.271484375,17193.22265625,17190.755859375,17190.51171875,17216.076171875,17220.376953125,17206.671875,17195.177734375,17218.091796875,17220.03515625,17218.666015625,17261.724609375,17284.76171875,17264.923828125,17250.779296875,17165.298828125,17189.66796875,17210.15234375,17213.181640625,17210.93359375,17200.33203125,17220.5234375,17209.982421875,17212.14453125,17203.3359375,17194.982421875,17191.953125,17235.890625,17266.890625,17294.15625,17318.40234375,17311.96484375,17337.45703125,17373.125,17399.44921875,17379.416015625,17388.78515625,17433.564453125,17444.86328125,17402.80859375,17391.77734375,17415.841796875,17404.029296875,17315.689453125,17228.951171875,17154.439453125,17201.296875,17268.857421875,17259.599609375,17215.02734375,17152.412109375,17093.31640625,17099.044921875,17128.677734375,17144.998046875,17163.248046875,17168.646484375,17171.22265625,17156.919921875,17187.005859375,17212.216796875,17258.40234375,17391.716796875,17679.099609375,18055.564453125,18405.01171875,18807.068359375,18647.833984375,18231.205078125,17778.87109375,17609.400390625,17476.037109375,17286.521484375,17249.38671875,17266.255859375,17271.30078125,17278.166015625,17290.50390625,17256.826171875,17232.56640625,17216.431640625,17222.904296875,17244.7578125,17225.62890625,17226.49609375,17257.607421875,17278.0078125,17292.06640625,17271.642578125,17354.044921875,17378.830078125,17380.380859375,17289.74609375,17229.46484375,17264.16796875,17306.810546875,17330.43359375,17323.421875,17307.419921875,17339.55859375,17323.10546875,17372.111328125,17347.9140625,17274.6484375,17280.046875,17289.990234375,17324.814453125,17364.916015625,17413.21484375,17413.03125,17452.681640625,17426.322265625,17398.751953125,17431.060546875,17487.482421875,17527.986328125,17548.7890625,17530.650390625,17470.955078125,17426.76171875,17442.54296875,17482.681640625,17507.662109375,17553.48046875,17587.14453125,17613.95703125,17639.021484375,17654.216796875,17679.869140625,17721.1796875,17744.009765625,17785.90625,17837.369140625,17935.087890625,17868.150390625,17743.630859375,17596.20703125,17502.25,17479.005859375,17456.138671875,17436.154296875,17468.255859375,17484.513671875,17505.072265625,17512.03515625,17484.794921875,17469.35546875,17472.82421875,17465.166015625,17456.517578125,17457.62890625,17460.009765625,17457.34765625,17448.833984375,17459.998046875,17465.873046875,17508.78515625,17539.896484375,17554.787109375,17542.279296875,17485.33203125,17446.427734375,17453,17484.392578125,17525.080078125,17581.109375,17587.486328125,17580.083984375,17582.734375,17568.0390625,17605.833984375,17646.986328125,17631.544921875,17622.763671875,17612.90625,17614.994140625,17619.330078125,17627.6484375,17663.525390625,17694.171875,17707.14453125,17705.458984375,17714.55859375,17672.5390625,17660.154296875,17617.53515625,17601.09375,17588.353515625,17596.55078125,17602.828125,17614.408203125,17625.072265625,17641.927734375,17636.58984375,17648.365234375,17673.87109375,17761.830078125,17807.087890625,17775.12109375,17746.76953125,17672.599609375,17576.041015625,17504.974609375,17453.76953125,17455.283203125,17494.041015625,17570.51953125,17617.71875,17621.45703125,17619.392578125,17614.34765625,17617.4375,17648.548828125,17679.978515625,17701.3671875,17714.583984375,17794.0546875,17847.677734375,18007.744140625,18025.357421875,17958.345703125,17739.34375,17588.31640625,17577.591796875,17605.833984375,17619.892578125,17595.376953125,17554.908203125,17551.416015625,17590.064453125,17629.787109375,17641.01171875,17600.7890625,17625.20703125,17594.765625,17598.931640625,17582.564453125,17597.857421875,17604.83203125,17651.6640625,17686,17693.341796875,17695.162109375,17750.837890625,18009.66015625,18396.876953125,18763.92578125,19006.490234375,19202.224609375,18883.15625,18444.16015625,18073.814453125,18088.38671875,17991.546875,17887.8046875,17814.880859375,17782.962890625,17787.34765625,17785.650390625,17688.125,17571.349609375,17580.095703125,17600.1171875,17635.6015625,17660.80078125,17664.490234375,17668.826171875,17691.30078125,17733.162109375,17843.51171875,17905.515625,17892.470703125,17790.376953125,17735.287109375,17729.619140625,17651.919921875,17551.07421875,17565.939453125,17658.845703125,17803.203125,17840.1171875,17828.720703125,17691.9375,17562.310546875,17589.697265625,17767.51171875,17980.11328125,17959.873046875,17806.599609375,17512.44921875,17494.17578125,17623.826171875,17646.314453125,17591.822265625,17529.0859375,17531.17578125,17594.828125,17636.58984375,17634.134765625,17627.33203125,17637.689453125,17691.240234375,17701.29296875,17783.1953125,17836.537109375,17741.84765625,17646.97265625,17609.900390625,17687.013671875,17733.796875,17760.853515625,17893.728515625,17910.658203125,17836.134765625,17649.904296875,17396.994140625,17407.0703125,17419.6640625,17459.546875,17517.275390625,17515.78515625,17497.669921875,17462.91796875,17473.71484375,17490.169921875,17497.33984375,17453.40234375,17424.953125,17470.076171875,17443.728515625,17499.6484375,17473.080078125,17461.255859375,17438.658203125,17509.626953125,17520.51171875,17503.080078125,17516.015625,17620.552734375,17557.16796875,17363.90234375,17204.498046875,17168.046875,17217.54296875,17253.796875,17286.716796875,17320.357421875,17342.2578125,17361.94921875,17396.37109375,17372.025390625,17367.494140625,17386.20703125,17396.95703125,17415.5,17423.158203125,17441.1015625,17457.408203125,17463.076171875,17539.17578125,17540.0546875,17555.25,17495.740234375,17484.84375,17489.412109375,17577.140625,17511.986328125,17414.4609375,17396.150390625,17483.951171875,17580.681640625,17559.513671875,17519.583984375,17465.654296875,17409.37890625,17393.62109375,17505.865234375,17516.908203125,17463.515625,17387.869140625,17371.20703125,17481.1171875,17530.650390625,17505.658203125,17518.533203125,17579.583984375,17584.798828125,17597.91796875,17514.6484375,17461.720703125,17376.912109375,17419.689453125,17476.744140625,17585.49609375,17598.248046875,17568.1015625,17510.921875,17570.666015625,17798.78125,18034.04296875,17933.427734375,17602.279296875,17252.34375,17208.771484375,17382.8359375,17507.05078125,17627.673828125,17681.46875,17666.919921875,17660.8984375,17711.65234375,17739.26953125,17747.001953125,17723.09765625,17696.578125,17666.908203125,17653.0078125,17708.732421875,17674.908203125,17576.505859375,17547.140625,17568.98046875,17678.96484375,17730.853515625,17668.09375,17599.310546875,17561.736328125,17607.873046875,17646.1796875,17712.373046875,17764.873046875,17920.345703125,18191.970703125,18499.591796875,18786.986328125,19174.251953125,19168.83984375,18796.318359375,18407.80859375,18294.63671875,18290.66796875,18158.708984375,18101.798828125,18072.41015625,18053.40234375,18043.912109375,18032.24609375,18048.162109375,18055.9921875,18064.763671875,18081.435546875,18121.44140625,18140.080078125,18193.484375,18215.251953125,18251.921875,18268.4609375,18280.041015625,18273.431640625,18287.1484375,18337.03515625,18393.724609375,18427.095703125,18398.623046875,18370.9921875,18383.037109375,18386.078125,18400.578125,18462.287109375,18544.32421875,18572.67578125,18556.501953125,18489.35546875,18403.607421875,18397.732421875,18460.748046875,18495.623046875,18533.35546875,18557.296875,18568.47265625,18577.267578125,18612.240234375,18630.634765625,18598.65625,18586.208984375,18589.53125,18586.13671875,18603.396484375,18615.3046875,18633.419921875,18661.294921875,18695.837890625,18716.6171875,18701.958984375,18703.595703125,18689.302734375,18681.279296875,18716.45703125,18743.416015625,18760.517578125,18751.1484375,18734.681640625,18763.0703125,18797.087890625,18835.296875,18877.12109375,18850.736328125,18806.73828125,18767.150390625,18770.75390625,18741.083984375,18710.3984375,18657.630859375,18619.41015625,18629.05859375,18642.177734375,18648.359375,18662.650390625,18689.4140625,18716.91015625,18715.56640625,18689.462890625,18634.421875,18655.322265625,18640.6875,18660.451171875,18666.6328125,18670.615234375,18674.31640625,18694.177734375,18708.431640625,18729.72265625,18749.193359375,18719.486328125,18729.833984375,18706.978515625,18709.947265625,18719.5,18726.583984375,18763.08203125,18787.70703125,18775.259765625,18772.87890625,18761.798828125,18795.892578125,18837.01953125,18878.869140625,18907.525390625,18867.49609375,18871.734375,18921.669921875,18990.953125,18973.130859375,18841.990234375,18748.791015625,18706.55078125,18758.013671875,18765.1953125,18796.33203125,18785.36328125,18846.107421875,18947.515625,18964.03125,18932.466796875,18881.275390625,18836.8125,18791.591796875,18834.931640625,18828.078125,18838.888671875,18821.8359375,18788.685546875,18802.658203125,18824.6328125,18846.33984375,18867.21484375,18901.24609375,18923.904296875,18964.875,18969.638671875,18973.326171875,18969.466796875,18943.998046875,18909.125,18896.8359375,18934.154296875,18991.33203125,19019.046875,19059.2109375,18996.888671875,18951.83984375,18908.63671875,18912.751953125,18910.798828125,18932.541015625,18977.552734375,19014.625,19033.521484375,19032.01953125,19044.455078125,19074.466796875,19082.150390625,19134.931640625,19140.2578125,19155.671875,19165.322265625,19154.669921875,19153.1796875,19139.890625,19116.44921875,19073.28125,19051.380859375,19009.10546875,18996.15625,18968.3671875,18987.66796875,18980.08203125,18953.453125,18938.990234375,18949.373046875,18956.005859375,18955.603515625,18955.8359375,18980.044921875,18985.46875,18994.99609375,19027,19079.181640625,19254.759765625,19544.28125,19790.1796875,20051.1171875,20409.591796875,20539.986328125,20159.255859375,19803.04296875,19555.677734375,19467.69140625,19256.654296875,19134.4921875,19086.779296875,19142.076171875,19206.79296875,19128.126953125,18992.96875,18947.00390625,18938.2578125,18953.599609375,19014.05078125,19085.19140625,19053.46875,19013.306640625,18974.328125,18953.1484375,19012.29296875,19048.15625,19122.263671875,19052.541015625,19002.080078125,18925.603515625,18955.150390625,18978.5546875,18986.99609375,19025.77734375,19063.705078125,19033.314453125,19030.7734375,19007.50390625,19013.427734375,19035.9296875,19057.8671875,19080.0625,19059.173828125,19052.58984375,19059.015625,19070.30078125,19098.029296875,19102.5625,19060.626953125,19041.14453125,19065.01171875,19079.767578125,19083.9453125,19101.572265625,19144.59375,19172.431640625,19176.744140625,19148.599609375,19130.923828125,19118.208984375,19123.05859375,19158.419921875,19179.357421875,19200.208984375,19202.041015625,19210.1015625,19193.5625,19203.73828125,19186.33203125,19217.96875,19223.90625,19243.9140625,19235.337890625,19211.3359375,19207.1953125,19162.21875,19134.98046875,19089.673828125,19067.6015625,19033.388671875,19008.970703125,19012.28125,19053.921875,19113.517578125,19084.7890625,19003.791015625,18958.05859375,18975.26953125,19002.41015625,19008.06640625,18949.666015625,18890.521484375,18939.13671875,18984.650390625,18979.837890625,18971.177734375,18944.046875,18926.26171875,18935.033203125,18942.275390625,18955.212890625,18969.076171875,18977.173828125,18964.947265625,18974.732421875,18989.083984375,18989.70703125,18988.400390625,18981.64453125,18995.888671875,19002.349609375,19026.1328125,19026.388671875,18994.69140625,19001.775390625,18988.81640625,19006.111328125,19025.47265625,19003.546875,18976.490234375,18961.943359375,18966.951171875,18988.412109375,19006.1484375,19018.14453125,19005.623046875,18990.2578125,18975.8671875,18980.203125,18985.296875,18975.94140625,18994.826171875,19008.041015625,19000.884765625,19004.328125,19008.810546875,18991.283203125,18999.13671875,18986.958984375,18979.6171875,18981.486328125,18969.541015625,18964.10546875,18945.513671875,18947.56640625,18953.880859375,18957.59375,18990.109375,18985.052734375,18983.490234375,18972.77734375,18978.712890625,18971.505859375,18949.458984375,18937.560546875,18936.388671875,18932.357421875,18949.677734375,18975.427734375,18999.8203125,19004.853515625,18995.58203125,19004.78125,18994.984375,19024.849609375,19035.94140625,19060.982421875,19087.634765625,19104.90625,19122.361328125,19102.330078125,19083.53125,19063.44921875,19034.90234375,19011.083984375,18967.646484375,18932.150390625,18905.130859375,18895.615234375,18896.408203125,18890.08203125,18868.814453125,18877.12109375,18874.201171875,18864.869140625,18861.498046875,18847.12109375,18862.4140625,18851.298828125,18854.474609375,18894.369140625,18907.646484375,18992.48046875,19220.8515625,19521.21875,19831.61328125,20169.6640625,20365.32421875,20026.466796875,19646.140625,19341.365234375,19325.998046875,19171.7109375,19064.046875,18980.033203125,18926.958984375,18926.45703125,18916.6484375,18883.802734375,18873.73828125,18860.521484375,18854.560546875,18871.3203125,18874.642578125,18875.314453125,18841.63671875,18837.556640625,18817.451171875,18834.490234375,18834.736328125,18836.947265625,18820.896484375,18820.45703125,18842.638671875,18853.09375,18857.248046875,18852.99609375,18852.60546875,18864.234375,18850.162109375,18837.142578125,18817.279296875,18837.080078125,18855.671875,18861.73046875,18860.900390625,18857.96875,18868.05859375,18908.869140625,18915.46484375,18903.53125,18892.341796875,18875.630859375,18882.703125,18894.24609375,18909.369140625,18924.7109375,18924.33203125,18936.2421875,18934.984375,18944.71875,18956.505859375,18959.951171875,18982.85546875,19017.58203125,18996.365234375,18989.109375,18975.84375,18996.546875,19003.65625,19012.6953125,19042.28125,19038.384765625,19031.54296875,19046.1640625,19025.021484375,19034.23046875,19035.427734375,19024.21484375,18999.173828125,18969.771484375,18922.78125,18907.560546875,18881.287109375,18846.986328125,18832.109375,18818.0625,18823.912109375,18793.205078125,18805.931640625,18795.451171875,18790.724609375,18788.74609375,18792.923828125,18790.333984375,18791.591796875,18785.619140625,18771.7421875,18772.4765625,18772.01171875,18775.419921875,18776.861328125,18801.314453125,18826.72265625,18843.494140625,18825.416015625,18812.236328125,18795.037109375,18795.353515625,18802.072265625,18796.44140625,18791.82421875,18793.25390625,18818.24609375,18808.75390625,18822.765625,18836.310546875,18846.693359375,18859.5078125,18840.5,18827.150390625,18812.431640625,18835.95703125,18857.8828125,18854.767578125,18832.609375,18831.498046875,18840.525390625,18836.421875,18829.2265625,18835.75,18842.125,18831.828125,18844.23828125,18830.314453125,18842.833984375,18853.86328125,18860.607421875,18861.302734375,18866.958984375,18852.458984375,18854.451171875,18857.578125,18851.873046875,18846.44921875,18845.326171875,18841.234375,18855.599609375,18857.87109375,18854.865234375,18881.482421875,18914.474609375,18927.654296875,18939.478515625,18961.013671875,18968.6484375,18992.78515625,19007.455078125,19033.5703125,19070.130859375,19075.06640625,19092.923828125,19066.404296875,19042.31640625,19037.615234375,19036.2578125,19011.53515625,18968.625,18932.78515625,18930.318359375,18902.919921875,18900.623046875,18914.767578125,18921.70703125,18903.615234375,18915.26953125,18913.4375,18936.205078125,18960.697265625,18959.951171875,18930.76953125,18919.3984375,18917.76171875,18962.6640625,19000.419921875,19130.16796875,19403.16015625,19723.1328125,20005.666015625,20377.392578125,20344.400390625,19941.951171875,19539.19921875,19386.181640625,19331.984375,19185.76953125,19108.302734375,19066.61328125,19036.796875,19026.92578125,19010.412109375,18984.89453125,18980.337890625,18977.712890625,18965.314453125,18949.69140625,18926.06640625,18916.74609375,18932.28515625,18943.64453125,18942.263671875,18922.59765625,18902.271484375,18899.462890625,18901.74609375,18908.94140625,18911.884765625,18911.6171875,18912.66796875,18920.912109375,18920.83984375,18932.041015625,18924.869140625,18927.69140625,18922.48828125,18944.560546875,18952.916015625,18949.458984375,18961.501953125,18967.4765625,18977.931640625,18980.802734375,18982.451171875,18982.609375,18998.673828125,19020.158203125,19028.685546875,19045.408203125,19044.357421875,19041.791015625,19042.267578125,19048.669921875,19050.990234375,19061.494140625,19068.0546875,19080.341796875,19089.357421875,19087.28125,19093.498046875,19089.4921875,19106.15234375,19112.4921875,19121.04296875,19122.166015625,19114.30078125,19126.943359375,19133.404296875,19137.263671875,19118.35546875,19104.455078125,19081.869140625,19068.359375,19056.107421875,19035.4765625,19001.189453125,18953.330078125,18936.216796875,18907.5,18899.291015625,18900.109375,18885.318359375,18878.587890625,18876.328125,18874.3125,18860.77734375,18863.4765625,18859.775390625,18853.240234375,18856.369140625,18856.2578125,18868.009765625,18862.744140625,18860.447265625,18864.1484375,18865.908203125,18868.779296875,18864.294921875,18867.654296875,18868.86328125,18879.796875,18894.076171875,18894.98046875,18885.68359375,18881.751953125,18878.318359375,18876.828125,18883.033203125,18892.841796875,18897.751953125,18902.1875,18898.044921875,18897.947265625,18900.953125,18900.244140625,18897.947265625,18903.4453125,18903.921875,18905.033203125,18904.203125,18899.0234375,18895.810546875,18901.734375,18909.41796875,18906.498046875,18900.5859375,18894.3203125,18895.736328125,18894.91796875,18897.703125,18899.6328125,18901.72265625,18900.5625,18901.24609375,18894.58984375,18891.681640625,18896.7265625,18899.51171875,18912.361328125,18901.306640625,18909.564453125,18909.58984375,18912.0078125,18918.15234375,18918.43359375,18933.62890625,18952.427734375,18979.60546875,19001.458984375,19002.47265625,19011.7421875,19005.818359375,19016.470703125,19025.912109375,19075.93359375,19114.287109375,19131.53515625,19130.998046875,19102.158203125,19088.5390625,19072.037109375,19036.197265625,19007.98046875,18985.224609375,18959.841796875,18944.353515625,18927.875,18942.751953125,18931.673828125,18937.158203125,18935.791015625,18933.408203125,18931.943359375,18940.115234375,18941.6171875,18945.427734375,18946.404296875,18954.478515625,18994.482421875,19020.4765625,19125.734375,19383.0546875,19693.05859375,20006.80078125,20350.373046875,20458.5,20091.609375,19737.83984375,19486.50390625,19427.408203125,19260.18359375,19155.07421875,19096.087890625,19055.251953125,19058.5625,19041.119140625,19028.8203125,19018.9375,19007.6875,18995.55859375,18989.71875,18987.0078125,19001.06640625,18994.140625,18997.4765625,18998.37890625,18998.953125,19010.056640625,19006.955078125,19008.798828125,19008.34765625,19007.076171875,19029.125,19035.048828125,19037.48046875,19037.712890625,19054.04296875,19046.82421875,19044.271484375,19047.349609375,19055.09375,19060.75,19068.298828125,19074.61328125,19079.279296875,19077.654296875,19080.671875,19077.3984375,19087.939453125,19095.623046875,19106.1640625,19107.998046875,19117.6953125,19126.564453125,19124.072265625,19136.005859375,19141.771484375,19146.181640625,19145.888671875,19141.625,19157.322265625,19187.87109375,19176.865234375,19181.51953125,19192.8671875,19191.79296875,19202.419921875,19205.38671875,19226.482421875,19225.5546875,19235.033203125,19251.939453125,19250.73046875,19257.814453125,19225.7734375,19206.31640625,19197.66796875,19163.294921875,19138.314453125,19108.865234375,19091.654296875,19072.255859375,19057.09765625,19048.998046875,19041.92578125,19032.88671875,19015.419921875,19016.93359375,19010.423828125,18999.466796875,18993.5546875,19000.322265625,19003.36328125,19000.87109375,18990.232421875,18992.626953125,18986.787109375,18992.357421875,18989.40234375,18978.15234375,18973.509765625,18975.29296875,18996.681640625,18988.509765625,18996.4140625,18989.537109375,18991.83203125,18993.591796875,18988.6328125,18996.92578125,18997.21875,18999.78515625,19003.388671875,19005.599609375,19002.326171875,18997.1953125,18996.474609375,18998.392578125,18997.341796875,18991.02734375,18994.875,19000.9453125,18997.560546875,19003.509765625,19005.611328125,18989.4140625,18988.962890625,18988.9375,18990.0859375,18984.771484375,18978.908203125,18986.080078125,18979.154296875,18984.125,18972.044921875,18968.453125,18978.15234375,18975.513671875,18979.88671875,18966.64453125,18975.134765625,18970.787109375,18970.052734375,18960.85546875,18963.25,18987.2890625,19008.958984375,19025.791015625,19040.056640625,19048.216796875,19056.376953125,19049.255859375,19043.478515625,19080.74609375,19128.591796875,19157.896484375,19154.169921875,19133.84375,19112.736328125,19101.095703125,19074.822265625,19042.646484375,19013.0625,18986.482421875,18963.677734375,18949.04296875,18949.189453125,18938.16015625,18938.869140625,18943.986328125,18938.513671875,18928.546875,18922.57421875,18937.060546875,18938.94140625,18943.095703125,18946.7109375,18972.361328125,18987.59375,19024.62890625,19163.392578125,19451.8125,19794.00390625,20077.611328125,20475.357421875,20335.60546875,19912.697265625,19527.0703125,19437.533203125,19321.24609375,19197.228515625,19120.359375,19049.291015625,19037.041015625,19024.458984375,19019.830078125,19003.412109375,18988.986328125,18996.876953125,18985.96875,18972.361328125,18970.8359375,18960.708984375,18955.626953125,18954.173828125,18962.015625,18972.251953125,18969.099609375,18972.30078125,18986.3359375,18995.6796875,18991.306640625,18983.18359375,18985.45703125,18995.765625,18994.361328125,19010.154296875,19009.470703125,19023.15234375,19017.998046875,19006.685546875,19007.919921875,19009.7890625,19015.626953125,19015.859375,19032.27734375,19039.251953125,19041.70703125,19038.2734375,19042.109375,19048.962890625,19062.435546875,19073.001953125,19076.3359375,19078.498046875,19072.20703125,19081.7109375,19096.783203125,19103.892578125,19104.541015625,19107.326171875,19115.302734375,19142.810546875,19156.50390625,19161.876953125,19152.533203125,19161.572265625,19175.998046875,19181.8125,19178.5390625,19188.15234375,19185.8671875,19173.396484375,19178.576171875,19149.650390625,19133.306640625,19108.15625,19097.6015625,19075.150390625,19057.806640625,19033.291015625,19011.779296875,18995.521484375,18985.37109375,18963.787109375,18957.9609375,18943.08203125,18937.9765625,18929.830078125,18930.4765625,18926.580078125,18923.66015625,18929.59765625,18927.337890625,18921.302734375,18919.482421875,18918.37109375,18917.748046875,18909.369140625,18906.474609375,18898.546875,18897.38671875,18912.21484375,18904.01953125,18904.49609375,18888.689453125,18888.15234375,18896.23828125,18899.451171875,18901.0390625,18885.3671875,18879.34375,18873.859375,18869.169921875,18863.880859375,18863.306640625,18862.634765625,18862.048828125,18861.81640625,18860.0078125,18859.447265625,18853.607421875,18846.70703125,18838.388671875,18832.8671875,18817.48828125,18827.015625,18830.716796875,18826.34375,18834.30859375,18826.099609375,18827.50390625,18827.30859375,18832.525390625,18824.5,18817.279296875,18821.06640625,18826.515625,18827.845703125,18820.859375,18832.5,18827.564453125,18839.951171875,18840.318359375,18840.634765625,18842.50390625,18834.80859375,18842.48046875,18852.154296875,18852.59375,18849.6015625,18863.94140625,18877.083984375,18898.009765625,18911.751953125,18917.724609375,18915.109375,18928.75390625,18934.421875,18974.634765625,19022.3203125,19041.70703125,19047.935546875,19025.021484375,19009.04296875,18983.66015625,18972.654296875,18938.037109375,18909.39453125,18875.142578125,18851.8125,18836.51953125,18839.658203125,18848.099609375,18839.0234375,18827.662109375,18837.765625,18839.79296875,18841.099609375,18854.451171875,18867.154296875,18863.697265625,18862.0234375,18881.0546875,18912.521484375,18946.1484375,19082.9921875,19370.3515625,19702.916015625,20004.078125,20416.56640625,20238.349609375,19823.625,19451.53125,19371.267578125,19270.08984375,19142.736328125,19047.703125,18976.857421875,18952.29296875,18962.796875,18954.564453125,18932.345703125,18918.775390625,18915.818359375,18912.935546875,18903.322265625,18899.841796875,18888.712890625,18903.37109375,18909.33203125,18906.81640625,18914.609375,18915.07421875,18913.36328125,18918.505859375,18919.177734375,18924.05078125,18919.177734375,18931.1484375,18938.72265625,18940.48046875,18948.615234375,18954.61328125,18952.37890625,18952.48828125,18965.875,18962.724609375,18967.57421875,18969.271484375,18981.4140625,18990.7578125,19005.6484375,18998.771484375,19001.25,19018.65625,19020.6484375,19024.154296875,19028.685546875,19043.6484375,19049.40234375,19061.763671875,19064.01171875,19077.337890625,19077.447265625,19090.078125,19101.81640625,19101.951171875,19110.427734375,19113.37109375,19123.16796875,19148.6484375,19148.013671875,19157.931640625,19155.111328125,19159.3359375,19171.380859375,19167.09375,19172.162109375,19149.759765625,19137.716796875,19130.16796875,19103.404296875,19083.212890625,19059.33203125,19041.853515625,19012.841796875,18997.68359375,18978.45703125,18969.9921875,18960.123046875,18952.09765625,18940.919921875,18931.283203125,18930.904296875,18928.205078125,18923.123046875,18927.21484375,18917.810546875,18915.916015625,18916.13671875,18909.576171875,18912.765625,18918.896484375,18914.255859375,18905.09375,18911.298828125,18912.86328125,18914.9140625,18910.48046875,18909.78515625,18914.23046875,18916.61328125,18914.51171875,18916.025390625,18916.34375,18917.248046875,18918.701171875,18926.384765625,18922.609375,18919.275390625,18924.78515625,18928.021484375,18925.724609375,18918.138671875,18916.05078125,18916.099609375,18920.9375,18921.44921875,18916.576171875,18915.0859375,18912.41015625,18912.88671875,18908.306640625,18908.623046875,18904.873046875,18899.474609375,18901.099609375,18901.197265625,18885.78125,18883.498046875,18885.171875,18884.853515625,18894.748046875,18885.416015625,18880.224609375,18878.74609375,18880.052734375,18900.171875,18911.482421875,18922.916015625,18922.87890625,18930.5859375,18936.572265625,18951.205078125,18949.91015625,18977.173828125,19018.388671875,19033.228515625,19028.587890625,19011.2421875,18989.609375,18978.43359375,18945.318359375,18913.291015625,18886.3203125,18848.416015625,18823.09375,18808.423828125,18807.154296875,18794.107421875,18794.5234375,18796.74609375,18794.20703125,18799.60546875,18791.4453125,18789.40625,18783.95703125,18782.28515625,18794.328125,18826.05078125,18843.689453125,18909.125,19078.9140625,19367.431640625,19682.58984375,20006.263671875,20305.62890625,20055.208984375,19633.5234375,19272.263671875,19229.87890625,19111.9921875,19009.203125,18921.107421875,18872.578125,18857.11328125,18849.271484375,18854.51171875,18832.267578125,18820.00390625,18818.513671875,18808.765625,18810.416015625,18792.01953125,18803.318359375,18797.578125,18796.9296875,18802.060546875,18799.947265625,18803.294921875,18805.28515625,18814.740234375,18818.26953125,18811.025390625,18809.267578125,18809.81640625,18811.35546875,18819.30859375,18823.66796875,18827.345703125,18837.435546875,18836.5546875,18842.333984375,18844.935546875,18849.125,18854.853515625,18874.04296875,18862,18852.619140625,18848.26953125,18858.201171875,18879.8203125,18890.8515625,18897.01953125,18894.7109375,18903.078125,18904.88671875,18910.615234375,18919.3359375,18927.447265625,18944.193359375,18934.30078125,18954.955078125,18957.826171875,18964.97265625,18972.41015625,18988.36328125,18997.353515625,19007.248046875,19009.080078125,19016.04296875,19027.85546875,19021.869140625,19030.322265625,19026.939453125,19001.177734375,18985.9453125,18965.791015625,18938.85546875,18910.541015625,18893.26953125,18871.685546875,18854.42578125,18841.33203125,18824.095703125,18809.40234375,18795.57421875,18797.908203125,18785.154296875,18777.240234375,18771.64453125,18781.84375,18783.4453125,18775.833984375,18772,18765.29296875,18752.87109375,18757.890625,18762.99609375,18761.005859375,18762.19140625,18769.1171875,18774.44140625,18769.1171875,18771.3515625,18778.15625,18775.4921875,18779.486328125,18787.818359375,18781.0390625,18781.16015625,18777.12890625,18782.78515625,18788.197265625,18781.83203125,18791.384765625,18791.177734375,18800.6796875,18789.392578125,18795.1953125,18798.615234375,18796.94140625,18799.8984375,18794.451171875,18792.875,18797.50390625,18799.59375,18798.34765625,18794.1328125,18791.017578125,18794.451171875,18792.12890625,18792.068359375,18782.638671875,18786.986328125,18788.57421875,18786.828125,18787.03515625,18795.537109375,18777.8984375,18783.7265625,18789.455078125,18821.73828125,18831.755859375,18848.794921875,18850.75,18849.662109375,18844.470703125,18850.2109375,18884.486328125,18939.234375,18952.31640625,18958.64453125,18931.099609375,18904.7265625,18895.67578125,18889.947265625,18852.166015625,18824.353515625,18791.482421875,18769.7890625,18754.2265625,18759.52734375,18751.63671875,18743.416015625,18745.1875,18741.2421875,18740.923828125,18748.64453125,18747.154296875,18744.80859375,18746.677734375,18754.32421875,18774.650390625,18808.94921875,18838.765625,18949.763671875,19227.228515625,19569.810546875,19865.046875,20279.5859375,20204.830078125,19795.017578125,19388.26953125,19241.677734375,19159.826171875,19013.07421875,18943.107421875,18886.025390625,18861.693359375,18858.029296875,18846.095703125,18838.7421875,18819.185546875,18816.498046875,18815.423828125,18816.828125,18809.841796875,18801.181640625,18803.63671875,18804.8828125,18804.283203125,18806.849609375,18806.373046875,18811.61328125,18815.94921875,18812.296875,18816.009765625,18821.45703125,18832.3046875,18831.779296875,18833.392578125,18845.544921875,18844.421875,18853.16796875,18858.48046875,18866.99609375,18871.111328125,18875.65625,18879.650390625,18883.595703125,18891.560546875,18895.08984375,18905.66796875,18905.533203125,18905.66796875,18915.123046875,18925.28515625,18932.08984375,18933.494140625,18945.5859375,18955.9453125,18964.666015625,18976.943359375,18980.875,18988.412109375,19003.27734375,18996.609375,19004.79296875,19018.986328125,19031.04296875,19037.58984375,19048.546875,19051.55078125,19046.556640625,19067.431640625,19072.720703125,19071.865234375,19067.96875,19049.9140625,19034.5234375,19024.642578125,18996.51171875,18967.720703125,18947.08984375,18925.3828125,18903.201171875,18892.03515625,18872.333984375,18860.19140625,18847.28125,18841.74609375,18831.53515625,18824.73046875,18826.74609375,18819.30859375,18815.875,18811.099609375,18812.662109375,18809.669921875,18816.412109375,18818.587890625,18826.13671875,18820.1875,18824.767578125,18827.650390625,18829.91015625,18816.779296875,18822.642578125,18824.62109375,18830.66796875,18831.986328125,18830.75390625,18836.51953125,18838.4375,18844.775390625,18847.916015625,18847.560546875,18844.654296875,18840.990234375,18846.560546875,18851.080078125,18851.8125,18851.04296875,18856.955078125,18860.240234375,18860.55859375,18856.72265625,18855.048828125,18858.103515625,18866.482421875,18860.021484375,18855.8671875,18848.16015625,18855.330078125,18851.7265625,18847.451171875,18849.845703125,18835.96875,18840.8671875,18836.947265625,18834.478515625,18838.509765625,18833.294921875,18836.80078125,18840.76953125,18833.91796875,18836.62890625,18832,18833.83203125,18833.7578125,18830.435546875,18825.78125,18831.14453125,18823.7421875,18824.33984375,18840.84375,18862.158203125,18889.3984375,18902.58984375,18892.353515625,18892.8671875,18894.6875,18907.29296875,18916.6484375,18959.462890625,18997.158203125,19015.65234375,18993.0546875,18972.912109375,18966.328125,18943.583984375,18909.955078125,18887.845703125,18860.412109375,18835.7734375,18817.255859375,18804.845703125,18805.45703125,18803.208984375,18793.423828125,18791.4453125,18792.59375,18797.173828125,18800.337890625,18799.6171875,18799.837890625,18796.41796875,18808.8515625,18854.193359375,18872.96875,18963.408203125,19197.544921875,19498.853515625,19826.166015625,20169.224609375,20326.6640625,19987.96484375,19629.626953125,19329.1015625,19253.771484375,19086.205078125,18998.880859375,18932.1015625,18899.474609375,18892.890625,18883.66796875,18873.28515625,18854.59765625,18847.658203125,18837.544921875,18828.28515625,18827.931640625,18827.908203125,18831.572265625,18834.162109375,18834.61328125,18833.294921875,18843.212890625,18846.951171875,18852.349609375,18855.697265625,18870.20703125,18887.908203125,18892.5859375,18897.80078125,18902.515625,18906.974609375,18917.552734375,18926.849609375,18937.646484375,18931.91796875,18932.1875,18939.796875,18941.51953125,18950.607421875,18950.58203125,18951.4140625,18957.984375,18954.357421875,18969.98046875,18975.060546875,18980.619140625,18984.69921875,18992.357421875,19000.982421875,19009.958984375,19019.927734375,19023.958984375,19036.087890625,19046.43359375,19054.3125,19064.03515625,19072.5,19084.58203125,19095.55078125,19099.43359375,19113.677734375,19123.05859375,19135.9453125,19145.314453125,19157.58984375,19161.14453125,19160.705078125,19154.255859375,19136.677734375,19112.333984375,19094.474609375,19066.0625,19038.34765625,19015.994140625,18995.19140625,18975.87890625,18963.8359375,18944.951171875,18928.291015625,18921.046875,18906.693359375,18900.109375,18900.48828125,18892.267578125,18900.927734375,18901.6484375,18901.52734375,18896.62890625,18893.806640625,18903.419921875,18901.880859375,18907.048828125,18918.701171875,18914.71875,18916.7109375,18905.314453125,18905.0703125,18893.794921875,18908.880859375,18909.11328125,18911.8984375,18924.271484375,18929.21875,18920.36328125,18912.765625,18909.05078125,18924.625,18926.15234375,18924.98046875,18922.462890625,18940.541015625,18943.888671875,18939.869140625,18950.814453125,18954.515625,18957.068359375,18968.306640625,18969.857421875,18991.208984375,18978.201171875,18967.232421875,18985.19921875,18982.072265625,18981.546875,18973.193359375,18958.681640625,18975.220703125,18996.595703125,19006.001953125,19013.208984375,18975.07421875,18935.986328125,18896.62890625,18923.453125,18946.8203125,18954.39453125,18952.57421875,18948.224609375,18960.060546875,18952.451171875,18960.830078125,18939.099609375,18924.833984375,18908.7578125,18886.087890625,18880.76171875,18899.181640625,18885.07421875,18871.515625,18854.0234375,18875.642578125,18904.666015625,18921.853515625,18894.61328125,18824.31640625,18823.53515625,18851.3359375,18877.1953125,18851.54296875,18844.3359375,18850.224609375,18860.203125,18854.2421875,18821.408203125,18808.1796875,18772.451171875,18791.982421875,18818.783203125,18849.283203125,18858.37109375,18827.466796875,18771.205078125,18759.90625,18798.712890625,18789.4296875,18818.34375,18804.9921875,18777.814453125,18804.0390625,18836.75,18836.5546875,18822.912109375,18766.72265625,18766.416015625,18719.353515625,18714.869140625,18729.943359375,18710.998046875,18658.791015625,18597.01953125,18567.080078125,18577.12109375,18600.244140625,18605.88671875,18585.20703125,18568.142578125,18586.185546875,18614.6328125,18642.49609375,18644.560546875,18650.435546875,18659.4375,18730.40625,18862.548828125,19115.875,19413.798828125,19715.81640625,20061.744140625,20170.947265625,19796.861328125,19408.03515625,19146.8046875,19113.505859375,18954.736328125,18874.201171875,18781.404296875,18727.51171875,18767.845703125,18752.357421875,18732.8984375,18704.33984375,18700.701171875,18673.94921875,18696.6328125,18699.41796875,18700.96875,18691.625,18690.732421875,18688.228515625,18695.27734375,18724.373046875,18745.6640625,18729.796875,18725.984375,18696.64453125,18701.310546875,18700.76171875,18688.423828125,18718.2890625,18738.322265625,18784.8125,18796.283203125,18785.033203125,18779.169921875,18759.4296875,18772.841796875,18790.333984375,18747.556640625,18783.578125,18793.814453125,18812.162109375,18834.552734375,18828.15234375,18892.548828125,18907.623046875,18942.056640625,18934.875,18922.671875,18864.52734375,18826.05078125,18832.90234375,18861.755859375,18966.15625,18976.173828125,18934.458984375,18877.79296875,18898.9375,18955.37109375,18985.431640625,18994.32421875,19014.6875,19042.12109375,19037.431640625,19072.634765625,19069.6171875,19044.248046875,19048.81640625,19003.193359375,19047.326171875,19002.88671875,18954.91796875,18918.62890625,18897.484375,18872.931640625,18875.142578125,18867.716796875,18844.3359375,18823.09375,18827.7734375,18841.013671875,18841.369140625,18833.404296875,18803.16015625,18830.203125,18858.25,18920.521484375,18947.6015625,18902.00390625,18814.41015625,18707.724609375,18700.859375,18741.755859375,18720.048828125,18727.548828125,18732.421875,18769.80078125,18761.93359375,18793.05859375,18814.568359375,18793.65625,18802.951171875,18773.525390625,18812.919921875,18826.197265625,18763.375,18747.533203125,18772.158203125,18794.328125,18832.365234375,18822.765625,18827.650390625,18800.08203125,18716.091796875,18691.880859375,18760.65234375,18809.59765625,18836.359375,18840.40234375,18822.12890625,18852.77734375,18759.125,18737.822265625,18749.962890625,18800.716796875,18795.134765625,18729.857421875,18680.642578125,18704.2421875,18726.681640625,18749.962890625,18791.201171875,18880.626953125,18876.16796875,18782.02734375,18688.73046875,18654.466796875,18748.228515625,18778.619140625,18779.291015625,18742.1328125,18683.44140625,18675.818359375,18728.34375,18741.16796875,18706.2578125,18655.98046875,18667.732421875,18703.912109375,18765.68359375,18769.21484375,18680.47265625,18722.00390625,18729.6015625,18720.048828125,18701.1640625,18679.91015625,18698.9296875,18717.8984375,18728.84375,18754.921875,18682.01171875,18655.6015625,18649.580078125,18677.7734375,18694.7265625,18757.890625,18833.05078125,18827.3828125,18691.4296875,18580.162109375,18633.48046875,18647.380859375,18615.390625,18627.642578125,18682.98828125,18745.052734375,18768.517578125,18759.44140625,18712.59765625,18776.91015625,18830.0703125,18846.4375,18829.298828125,18816.73046875,18814.80078125,18829.201171875,18879.24609375,18851.947265625,18731.896484375,18520.859375,18582.41015625,18618.19921875,18628.546875,18632.69921875,18655.529296875,18639.9921875,18588.96875,18583.77734375,18611.580078125,18606.498046875,18566.408203125,18632.759765625,18673.412109375,18690.0859375,18766.685546875,18912.912109375,19238.13671875,19623.470703125,19943.259765625,20232.509765625,19906.11328125,19443.677734375,19065.46484375,19032.826171875,18859.51953125,18813.775390625,18728.734375,18681.498046875,18679.775390625,18645.0234375,18597.0078125,18608.208984375,18657.30078125,18706.892578125,18723.322265625,18610.919921875,18623.513671875,18572.578125,18543.1640625,18536.921875,18602.39453125,18615.841796875,18601.404296875,18541.35546875,18579.087890625,18619.12890625,18623.83203125,18600.87890625,18588.603515625,18573.615234375,18552.666015625,18583.83984375,18705.953125,18723.138671875,18647.345703125,18581.84765625,18639.783203125,18689.05859375,18638.96484375,18623.57421875,18606.314453125,18575.69140625,18602.150390625,18673.6328125,18690.244140625,18711.474609375,18659.169921875,18652.548828125,18597.984375,18584.0234375,18546.130859375,18626.763671875,18679.494140625,18747.12890625,18744.625,18701.3359375,18689.25390625,18736.783203125,18791.666015625,18786.03515625,18730.76171875,18668.85546875,18702.923828125,18799.703125,18830.765625,18822.619140625,18771.974609375,18777.80078125,18759.197265625,18759.015625,18720.451171875,18711.83984375,18737.9921875,18697.939453125,18637.072265625,18552.470703125,18529.775390625,18557.6875,18511.880859375,18518.390625,18507.421875,18498.689453125,18496.037109375,18488.26953125,18472.03515625,18465.904296875,18467.759765625,18523.998046875,18619.01953125,18664.740234375,18650.716796875,18522.10546875,18420.244140625,18458.048828125,18495.818359375,18423.1640625,18418.55859375,18440.765625,18498.041015625,18470.630859375,18421.18359375,18436.404296875,18446.861328125,18466.283203125,18488.09765625,18506.3359375,18534.6015625,18542.89453125,18503.978515625,18508.728515625,18458.404296875,18456.986328125,18482.125,18528.19921875,18547.439453125,18493.630859375,18492.41015625,18406.966796875,18429.466796875,18484.3125,18506.45703125,18496.63671875,18428.1953125,18498.419921875,18459.662109375,18505.98046875,18478.814453125,18428.599609375,18423.017578125,18469.275390625,18523.765625,18529.873046875,18478.130859375,18453.87109375,18523.265625,18528.408203125,18467.443359375,18410.27734375,18363.310546875,18331.001953125,18378.75,18456.595703125,18485.900390625,18448.337890625,18410.251953125,18374.4140625,18418.888671875,18464.51171875,18515.056640625,18487.4140625,18505.248046875,18435.916015625,18448.5703125,18505.994140625,18535.98046875,18521.73828125,18392.564453125,18364.06640625,18438.1640625,18471.62109375,18440.630859375,18485.3125,18493.119140625,18548.306640625,18570.31640625,18605.09375,18611.505859375,18627.38671875,18642.337890625,18647.015625,18611.3359375,18568.47265625,18448.77734375,18433.119140625,18446.6640625,18448.021484375,18455.6796875,18400.6875,18371.73828125,18388.1796875,18399.35546875,18354.7109375,18379.0546875,18388.888671875,18391.771484375,18436.91796875,18471.888671875,18501.326171875,18389.181640625,18356.103515625,18360.51171875,18520.6875,18745.08984375,19047.326171875,19353.005859375,19786.724609375,19996.845703125,19551.21875,19072.78125,18842.626953125,18863.1484375,18685.994140625,18564.91796875,18486.119140625,18491.5546875,18582.935546875,18636.36328125,18532.42578125,18393.84765625,18315.79296875,18342.568359375,18423.17578125,18462.349609375,18473.57421875,18411.423828125,18361.587890625,18378.443359375,18377.625,18379.080078125,18369.380859375,18433.27734375,18488.806640625,18469.361328125,18494.962890625,18510.78125,18498.724609375,18423.296875,18419.498046875,18436.953125,18451.966796875,18456.681640625,18441.693359375,18419.1328125,18472.537109375,18469.04296875,18445.076171875,18486.876953125,18518.880859375,18496.806640625,18427.03515625,18465.12109375,18479.4140625,18490.3828125,18492.154296875,18635.033203125,18643.814453125,18558.884765625,18451.783203125,18428.318359375,18494.890625,18568.19140625,18642.484375,18600.37890625,18561.44921875,18552.60546875,18575.533203125,18649.51953125,18717.3984375,18665.837890625,18570.548828125,18559.689453125,18568.9609375,18593.232421875,18639.466796875,18648.17578125,18587.3203125,18563.171875,18595.419921875,18619.01953125,18589.421875,18506.65234375,18442.376953125,18402.53125,18404.009765625,18386.359375,18434.03515625,18448.875,18400.712890625,18344.609375,18327.775390625,18369.22265625,18422.05078125,18404.939453125,18388.923828125,18413.4765625,18341.615234375,18233.6484375,18252.23828125,18298.033203125,18295.95703125,18279.697265625,18312.751953125,18355.02734375,18388.203125,18372.71484375,18341.84765625,18343.86328125,18349.091796875,18375.76953125,18386.75,18394.775390625,18356.494140625,18395.8984375,18371.078125,18357.21484375,18335.03125,18316.83203125,18261.44921875,18298.130859375,18340.87109375,18358.412109375,18315.939453125,18295.333984375,18334.958984375,18387.556640625,18380.12890625,18347.736328125,18349.873046875,18339.55078125,18310.626953125,18329.462890625,18370.162109375,18341.798828125,18330.109375,18359.546875,18410.703125,18351.265625,18290.5703125,18337.5859375,18330.671875,18262.01171875,18222.32421875,18232.328125,18327.544921875,18390.78125,18382.4140625,18331.46484375,18286.16015625,18263.611328125,18316.18359375,18294.9296875,18339.404296875,18308.220703125,18316.453125,18296.53125,18275.703125,18273.810546875,18341.25,18329.62109375,18380.458984375,18354.576171875,18345.59765625,18305.59375,18355.95703125,18432.91015625,18516.94921875,18570.66015625,18479.7421875,18394.298828125,18369.392578125,18396.9375,18426.900390625,18417.421875,18369.197265625,18309.294921875,18296.56640625,18277.951171875,18260.5078125,18274.15234375,18223.65625,18264.8203125,18278.525390625,18296.103515625,18277.2421875,18281.677734375,18208.97265625,18223.47265625,18252.349609375,18322.328125,18364.359375,18375.609375,18415.08984375,18598.412109375,18944.755859375,19272.6796875,19648.7421875,19843.14453125,19478.41796875,18968.587890625,18692.283203125,18657.88671875,18484.482421875,18391.72265625,18348.333984375,18356.029296875,18343.216796875,18335.5078125,18292.560546875,18340.173828125,18379.2265625,18372.728515625,18352.14453125,18293.048828125,18220.455078125,18262.548828125,18337.78125,18381.47265625,18282.69140625,18259.703125,18274.99609375,18309.380859375,18317.283203125,18272.34375,18293.025390625,18279.283203125,18353.74609375,18404.888671875,18437.41796875,18401.787109375,18335.044921875,18313.10546875,18309.759765625,18309.576171875,18324.392578125,18358.228515625,18400.041015625,18411.0703125,18394.12890625,18306.814453125,18302.380859375,18327.166015625,18367.1328125,18435.720703125,18423.48046875,18432.361328125,18435.720703125,18443.6484375,18427.830078125,18475.11328125,18464.92578125,18484.8359375,18497.30859375,18531.16796875,18453.591796875,18387.849609375,18370.41796875,18426.705078125,18517.548828125,18555.3046875,18531.509765625,18512.22265625,18485.30078125,18514.12890625,18586.7578125,18643.66796875,18614.669921875,18557.00390625,18501.974609375,18465.7578125,18374.669921875,18362.833984375,18300.353515625,18350.6796875,18405.1953125,18423.96875,18360.96484375,18251.970703125,18183.96875,18223.521484375,18265.40625,18321.83984375,18299.462890625,18282.5078125,18272.515625,18288.064453125,18340.626953125,18387.6171875,18355.931640625,18331.66015625,18239.546875,18290.0078125,18335.751953125,18388.349609375,18344.4140625,18271.099609375,18198.259765625,18182.52734375,18216.73046875,18244.470703125,18278.0859375,18291.3515625,18261.044921875,18259.23828125,18279.16015625,18308.025390625,18378.67578125,18351.193359375,18302.7109375,18254.03515625,18270.353515625,18301.3671875,18317.076171875,18312.62890625,18321.0703125,18297.03125,18321.044921875,18313.693359375,18323.244140625,18305.8984375,18334.201171875,18329.90234375,18334.51953125,18333.06640625,18343.9609375,18351.16796875,18356.1640625,18316.869140625,18313.716796875,18257.064453125,18281.884765625,18299.853515625,18312.666015625,18291.25390625,18273.1015625,18291.619140625,18310.236328125,18303.541015625,18275.521484375,18263.9765625,18306.486328125,18348.052734375,18364.34765625,18370.50390625,18359.25390625,18363.029296875,18385.369140625,18387.59375,18398.2578125,18441.828125,18493.64453125,18499.470703125,18471.62109375,18445.8828125,18438.248046875,18427.439453125,18390.671875,18384.283203125,18360.623046875,18306.033203125,18307.890625,18295.1875,18297.6171875,18300.68359375,18288.19921875,18277.9765625,18289.62890625,18287.2109375,18289.51953125,18290.77734375,18305.349609375,18310.943359375,18335.8984375,18384.208984375,18413.0859375,18511.625,18773.94140625,19102,19446.744140625,19838.0625,19966.638671875,19542.216796875,19147.806640625,18841.35546875,18769.2265625,18631.5625,18560.19140625,18508.314453125,18522.263671875,18527.234375,18493.2890625,18472.193359375,18520.322265625,18536.861328125,18516.986328125,18465.18359375,18428.84375,18436.0859375,18409.751953125,18429.63671875,18439.703125,18449.25390625,18424.666015625,18450.51171875,18459.5390625,18513.56640625,18546.474609375,18547.31640625,18530.41015625,18490.28515625,18471.583984375,18522.7890625,18587.39453125,18645.78125,18576.572265625,18554.083984375,18514.080078125,18547.79296875,18611.82421875,18623.513671875,18568.0703125,18516.314453125,18513.6640625,18548.0625,18563.07421875,18598.302734375,18610.578125,18630.66015625,18613.36328125,18619.703125,18636.802734375,18698.220703125,18713.990234375,18740.5703125,18762.435546875,18764.5,18760.39453125,18748.16796875,18733.876953125,18724.8125,18741.791015625,18798.201171875,18866.91015625,18842.015625,18749.865234375,18711.876953125,18687.49609375,18716.775390625,18733.09375,18745.517578125,18734.31640625,18701.421875,18694.005859375,18695.984375,18652.853515625,18614.193359375,18629.560546875,18639.869140625,18647.80859375,18635.447265625,18605.130859375,18608.7578125,18589.34765625,18581.666015625,18590.6796875,18587.931640625,18608.404296875,18640.650390625,18644.962890625,18647.7109375,18684.796875,18683.0859375,18625.357421875,18560.5078125,18530.705078125,18502.537109375,18510.59765625,18529.177734375,18571.16015625,18581.53125,18593.83203125,18580.517578125,18581.921875,18596.62890625,18600,18602.9921875,18610.2109375,18598.107421875,18614.03515625,18627.60546875,18666.23046875,18651.53515625,18627.740234375,18615.5859375,18592.9765625,18607.744140625,18590.251953125,18580.419921875,18591.021484375,18604.263671875,18593.794921875,18578.685546875,18584.33984375,18604.396484375,18586.708984375,18597.958984375,18594.455078125,18592.3046875,18580.810546875,18597.77734375,18592.744140625,18575.27734375,18578.671875,18574.384765625,18576.08203125,18575.826171875,18562.87890625,18563.427734375,18574.677734375,18567.10546875,18561.107421875,18565.578125,18560.75390625,18585.671875,18614.2421875,18629.71875,18629.3515625,18621.73046875,18639.80859375,18633.017578125,18656.421875,18657.10546875,18691.24609375,18714.869140625,18729.9921875,18725.521484375,18714.22265625,18695.6796875,18677.662109375,18655.3828125,18631.771484375,18619.591796875,18565.3828125,18535.162109375,18520.322265625,18524.083984375,18524.05859375,18545.97265625,18527.638671875,18530.533203125,18536.005859375,18566.017578125,18537.60546875,18513.3828125,18506.005859375,18505.552734375,18555.623046875,18580.517578125,18659.71875,18864.748046875,19178.63671875,19508.564453125,19888.81640625,20212.55078125,19916.837890625,19491.70703125,19097.455078125,18998.673828125,18846.119140625,18767.578125,18692.638671875,18642.203125,18642.80078125,18620.21484375,18586.611328125,18589.32421875,18595.30859375,18577.390625,18571.74609375,18541.7578125,18539.25390625,18534.380859375,18532.1328125,18527.173828125,18525.28125,18516.62109375,18551.580078125,18609.80859375,18619.177734375,18601.990234375,18559.775390625,18596.15234375,18657.849609375,18662.515625,18582.140625,18526.099609375,18580.224609375,18601.33203125,18612.751953125,18552.447265625,18488.74609375,18502.62109375,18503.427734375,18501.388671875,18546.486328125,18577.634765625,18590.263671875,18615.76953125,18618.724609375,18634.7265625,18642.091796875,18752.466796875,18817.5859375,18790.859375,18674.73046875,18608.4765625,18592.646484375,18638.3671875,18609.91796875,18652.328125,18778.033203125,18857.125,18884.560546875,18789.11328125,18690.611328125,18601.33203125,18591.83984375,18670.6875,18740.619140625,18759.931640625,18779.755859375,18759.587890625,18750.109375,18722.22265625,18699.90625,18673.0703125,18651.986328125,18697.841796875,18679.740234375,18660.7578125,18640.19921875,18585.29296875,18598.044921875,18610.896484375,18752.80859375,18622.12109375,18484.396484375,18363.76171875,18347.296875,18347.69921875,18342.23828125,18362.185546875,18382.6953125,18421.63671875,18435.841796875,18444.943359375,18490.064453125,18508.77734375,18513.75,18490.994140625,18475.00390625,18502.21875,18579.80859375,18671.140625,18635.056640625,18516.75390625,18434.462890625,18440.41015625,18565.333984375,18567.728515625,18527.259765625,18446.884765625,18398.953125,18414.5390625,18486.265625,18521.37109375,18477.458984375,18438.810546875,18426.998046875,18447.04296875,18478.94921875,18475.650390625,18513.333984375,18504.734375,18509.890625,18510.20703125,18498.517578125,18508.86328125,18506.37109375,18507.837890625,18513.73828125,18544.935546875,18565.908203125,18553.509765625,18551.82421875,18546.376953125,18551.287109375,18550.076171875,18472.9140625,18459.650390625,18416.775390625,18414.076171875,18451.869140625,18539.962890625,18581.1640625,18564.306640625,18496.453125,18471.94921875,18564.466796875,18650.935546875,18687.275390625,18678.67578125,18740.521484375,18836.384765625,18794.365234375,18748.583984375,18576.021484375,18505.11328125,18469.3359375,18484.666015625,18462.10546875,18314.71875,18237.3359375,18218.794921875,18277.6328125,18309.63671875,18342.470703125,18333.08984375,18392.6015625,18507.263671875,18642.849609375,18562.390625,18556.392578125,18618.7734375,18698.220703125,18670.236328125,18696.021484375,18935.83984375,19312.3671875,19670.986328125,20188.87890625,19870.15234375,19316.458984375,18820.3828125,18686.494140625,18614.70703125,18580.248046875,18546.388671875,18492.654296875,18522.837890625,18572.345703125,18634.177734375,18527.00390625,18455.837890625,18392.576171875,18446.34765625,18529.12890625,18574.54296875,18515.900390625,18418.509765625,18372.740234375,18417.740234375,18574.51953125,18660.0859375,18554.890625,18350.361328125,18272.11328125,18292.890625,18357.177734375,18384.34375,18413.453125,18451.576171875,18457.451171875,18465.28125,18492.2265625,18503.990234375,18490.87109375,18497.857421875,18491.0546875,18500.69140625,18496.794921875,18512.515625,18525.28125,18527.150390625,18527.515625,18547.669921875,18541.83203125,18548.318359375,18559.06640625,18562.40234375,18571.34375,18587.02734375,18596.958984375,18598.16796875,18587.087890625,18594.455078125,18608.037109375,18621.3515625,18631.80859375,18631.857421875,18646.5390625,18652.244140625,18656.43359375,18665.509765625,18674.53515625,18678.224609375,18680.509765625,18688.681640625,18673.484375,18650.4609375,18632.380859375,18614.841796875,18597.189453125,18563.318359375,18542.283203125,18520.98046875,18501.265625,18483.84765625,18470.484375,18448.240234375,18436.24609375,18434.6328125,18427.279296875,18414.466796875,18415.2109375,18410.630859375,18406.953125,18405.818359375,18397.279296875,18397.291015625,18390.68359375,18390.68359375,18391.880859375,18391.685546875,18389.205078125,18382.9140625,18390.21875,18388.16796875,18395.94921875,18394.458984375,18390.9765625,18404.193359375,18405.267578125,18394.640625,18393.95703125,18389.779296875,18386.9453125,18395.728515625,18397.353515625,18396.828125,18396.021484375,18402.984375,18395.3984375,18399.515625,18407.05078125,18401.76171875,18404.095703125,18408.84765625,18400.810546875,18409.458984375,18407.833984375,18411.9140625,18406.734375,18410.3984375,18402.04296875,18406.625,18408.58984375,18420,18441.27734375,18461.787109375,18479.73046875,18464.072265625,18477.80078125,18479.05859375,18486.81640625,18515.94921875,18548.501953125,18574.1171875,18575.19140625,18586.087890625,18576.046875,18556.966796875,18542.98046875,18514.861328125,18479.474609375,18437.576171875,18403.47265625,18386.26171875,18367.451171875,18371.8359375,18358.423828125,18354.771484375,18357.3984375,18364.873046875,18363.724609375,18364.751953125,18365.0078125,18353.806640625,18365.923828125,18367.4375,18376.966796875,18418.802734375,18444.625,18528.787109375,18786.083984375,19109.732421875,19440.599609375,19806.669921875,19975.06640625,19622.37109375,19265.08203125,18940.224609375,18813.126953125,18664.62890625,18563.685546875,18494.876953125,18457.474609375,18446.91015625,18438.236328125,18428.57421875,18419.51171875,18407.50390625,18396.521484375,18391.966796875,18385.615234375,18387.849609375,18386.419921875,18391.220703125,18391.94140625,18392.662109375,18397.87890625,18399.9921875,18402.384765625,18402.177734375,18410.935546875,18416.041015625,18423.4921875,18425.751953125,18426.53515625,18433.826171875,18436.91796875,18442.939453125,18447.88671875,18450.146484375,18455.94921875,18465.927734375,18471.021484375,18471.388671875,18476.65234375,18480.353515625,18485.9609375,18498.126953125,18505.248046875,18514.12890625,18523.044921875,18522.763671875,18533.048828125,18536.701171875,18540.939453125,18553.92578125,18556.13671875,18558.712890625,18568.412109375,18571.708984375,18578.09765625,18592.5234375,18604.32421875,18608.953125,18613.142578125,18618.615234375,18630.939453125,18639.5390625,18643.240234375,18648.9453125,18639.955078125,18638.1953125,18625.357421875,18614.1328125,18592.71875,18568.828125,18538.302734375,18514.470703125,18506.82421875,18482.296875,18463.265625,18448.08203125,18437.87109375,18433.130859375,18420.9765625,18417.470703125,18411.009765625,18401.322265625,18411.583984375,18403.435546875,18407.22265625,18403.546875,18399.52734375,18408.212890625,18400.162109375,18397.51171875,18395.740234375,18402.958984375,18406.26953125,18406.771484375,18404.119140625,18405.3046875,18401.53125,18406.232421875,18448.033203125,18499.8359375,18548.5859375,18598.94921875,18654.125,18553.77734375,18393.115234375,18286.623046875,18226.978515625,18218.158203125,18266.310546875,18291.423828125,18317.8203125,18332.564453125,18327.0546875,18346.24609375,18350.080078125,18354.564453125,18371.494140625,18375.609375,18386.0546875,18378.541015625,18383.01171875,18381.8515625,18381.130859375,18386.212890625,18382.5859375,18388.498046875,18378.126953125,18377.90625,18387.51953125,18383.76953125,18388.9609375,18414.111328125,18438.28515625,18460.6015625,18449.33984375,18459.759765625,18458.818359375,18459.234375,18484.884765625,18537.140625,18568.4609375,18570.634765625,18575.458984375,18571.966796875,18564.478515625,18550.615234375,18522.8125,18485.7890625,18439.25,18405.78125,18385.638671875,18374.23046875,18376.685546875,18366.205078125,18362.369140625,18367.634765625,18365.1171875,18364.140625,18365.984375,18368.330078125,18373.546875,18379.005859375,18377.05078125,18388.021484375,18428.390625,18449.681640625,18549.69921875,18821.798828125,19155.26953125,19483.388671875,19853.845703125,19918.14453125,19528.974609375,19169.853515625,18907.0234375,18799.568359375,18652.744140625,18572.8828125,18505.455078125,18474.552734375,18466.880859375,18449.53515625,18431.580078125,18430.052734375,18415.46875,18408.96875,18402.666015625,18401.994140625,18392.72265625,18391.220703125,18397.939453125,18398.48828125,18403.130859375,18402.947265625,18403.033203125,18406.513671875,18405.5,18404.474609375,18409.8984375,18415.1875,18433.314453125,18425.435546875,18433.65625,18429.55078125,18434.291015625,18439.080078125,18443.501953125,18446.322265625,18446.91015625,18445.50390625,18459.466796875,18461.580078125,18470.251953125,18466.208984375,18473.892578125,18476.45703125,18476.787109375,18487.0234375,18491.91015625,18501.55859375,18508.412109375,18520.455078125,18521.1640625,18527.22265625,18521.2734375,18534.34375,18555.708984375,18561.486328125,18567.21484375,18568.791015625,18580.48046875,18591.607421875,18597.544921875,18607.6953125,18612.923828125,18615.744140625,18625.431640625,18633.1015625,18627.91015625,18622.474609375,18605.9609375,18586.171875,18562.01171875,18547.462890625,18527.638671875,18509.083984375,18487.62109375,18476.189453125,18457.48828125,18442.8046875,18434.62109375,18425.47265625,18425.765625,18426.986328125,18418.30078125,18407.40625,18404.3515625,18409.23828125,18415.138671875,18408.95703125,18410.619140625,18408.7734375,18415.162109375,18409.4453125,18410.166015625,18412.548828125,18415.3828125,18414.80859375,18416.041015625,18416.482421875,18425.154296875,18422.30859375,18423.2734375,18426.033203125,18431.53125,18430.40625,18431.5546875,18428.5625,18432.04296875,18435.5,18433.65625,18434.890625,18433.0703125,18435.134765625,18442.951171875,18436.037109375,18439.177734375,18440.630859375,18437.625,18438.724609375,18448.705078125,18439.947265625,18439.470703125,18435.671875,18434.841796875,18433.1796875,18435.158203125,18433.142578125,18440.86328125,18433.875,18441.44921875,18436.3671875,18438.9453125,18437.150390625,18432.166015625,18429.490234375,18432.01953125,18423.87109375,18430.919921875,18459.734375,18472.71875,18492.654296875,18499.017578125,18507.056640625,18514.849609375,18505.578125,18511.734375,18552.99609375,18603.298828125,18618.3828125,18632.40625,18612.60546875,18610.95703125,18597.71484375,18579.966796875,18559.3125,18508.9375,18449.267578125,18422.3203125,18422.0390625,18417.361328125,18411.595703125,18402.49609375,18398.4765625,18401.34765625,18397.1328125,18400.908203125,18402.703125,18405.609375,18400.6875,18401.08984375,18404.291015625,18446.06640625,18475.833984375,18557.564453125,18771.53515625,19081.880859375,19412.517578125,19755.18359375,19966.58984375,19649.353515625,19285.041015625,18958.509765625,18854.2421875,18721.94140625,18639.33203125,18572.248046875,18532.21875,18520.1875,18509.658203125,18495.37890625,18475.419921875,18470.66796875,18466.953125,18462.568359375,18464.583984375,18468.9453125,18466.513671875,18461.76171875,18465.1953125,18468.56640625,18465.28125,18466.625,18469.275390625,18476.140625,18485.6796875,18496.990234375,18504.34375,18507.703125,18509.79296875,18526.576171875,18529.775390625,18533.525390625,18535.357421875,18539.890625,18542.50390625,18550.9453125,18557.833984375,18562.634765625,18564.306640625,18573.896484375,18581.005859375,18586.33203125,18585.7578125,18593.3671875,18591.865234375,18605.900390625,18615.427734375,18611.91015625,18620.044921875,18632.67578125,18637.40234375,18651.888671875,18653.404296875,18661.234375,18673.2890625,18686.958984375,18689.40234375,18691.380859375,18700.150390625,18708.333984375,18718.92578125,18722.4921875,18734.79296875,18738.08984375,18745.40625,18752.58984375,18743.232421875,18730.578125,18716.32421875,18697.51171875,18682.09765625,18659.3515625,18640.7734375,18626.017578125,18606.986328125,18597.49609375,18585.3671875,18579.69921875,18567.21484375,18559.849609375,18549.02734375,18549.587890625,18545.349609375,18546.009765625,18546.572265625,18545.88671875,18541.794921875,18543.578125,18543.322265625,18542.638671875,18537.826171875,18548.390625,18545.326171875,18546.27734375,18545.556640625,18555.76953125,18555.037109375,18560.08203125,18558.505859375,18559.494140625,18559.91015625,18571.869140625,18573.28515625,18576.205078125,18565.11328125,18570.0234375,18569.939453125,18575.166015625,18574.287109375,18573.1015625,18581.8359375,18580.615234375,18581.384765625,18580.041015625,18580.46875,18584.107421875,18585.525390625,18584.14453125,18582.69140625,18586.001953125,18586.35546875,18582.30078125,18586.4296875,18579.978515625,18582.263671875,18589.970703125,18596.384765625,18622.390625,18640.259765625,18656.3359375,18647.857421875,18658.009765625,18651.53515625,18661.306640625,18694.837890625,18736.416015625,18762.177734375,18776.126953125,18772.755859375,18766.61328125,18754.62890625,18733.583984375,18703.912109375,18658.92578125,18617.58984375,18586.783203125,18573.517578125,18565.28515625,18560.619140625,18555.720703125,18553.716796875,18550.08984375,18550.908203125,18555.0234375,18556.7578125,18561.291015625,18559.0546875,18559.275390625,18562.51171875,18582.30078125,18620.423828125,18652,18769.740234375,19061.03125,19400.94921875,19707.826171875,20105.0703125,19988.369140625,19591.064453125,19207.939453125,19056.14453125,18944.658203125,18834.34375,18757.181640625,18683.404296875,18657.60546875,18652.279296875,18635.77734375,18628.009765625,18617.80859375,18604.775390625,18600.20703125,18598.716796875,18593.439453125,18589.03125,18584.15625,18581.666015625,18591.400390625,18594.4296875,18594.478515625,18596.71484375,18596.65234375,18596.189453125,18598.83984375,18616.783203125,18619.62890625,18618.529296875,18624.650390625,18631.453125,18638.708984375,18641.884765625,18636.607421875,18638.3671875,18643.15625,18651.5234375,18652.59765625,18658.509765625,18663.45703125,18663.1640625,18667.48828125,18676.5625,18676.087890625,18687.60546875,18689.451171875,18691.625,18695.728515625,18704.890625,18703.412109375,18711.119140625,18721.673828125,18730.833984375,18736.318359375,18743.28125,18745.6640625,18749.548828125,18756.376953125,18761.7265625,18769.970703125,18778.38671875,18789.490234375,18794.70703125,18805.28515625,18802.5,18804.234375,18798.333984375,18794.53515625,18779.609375,18760.76171875,18739.421875,18720.927734375,18701.140625,18686.568359375,18670.896484375,18655.40625,18648.3828125,18636.802734375,18630.78125,18618.712890625,18621.328125,18615.48828125,18612.875,18612.568359375,18610.30859375,18605.033203125,18600.98828125,18604.21484375,18603.75,18595.419921875,18598.265625,18602.857421875,18604.384765625,18609.759765625,18610.064453125,18609.89453125,18619.666015625,18618.48046875,18620.826171875,18616.234375,18614.33984375,18618.298828125,18617.345703125,18622.939453125,18628.47265625,18623.685546875,18627.38671875,18628.27734375,18636.509765625,18631.111328125,18622.048828125,18630.169921875,18629.388671875,18632.48046875,18630.841796875,18623.29296875,18621.0703125,18622.4140625,18626.982421875,18627.630859375,18628.19140625,18625.736328125,18630.12109375,18623.623046875,18629.14453125,18628.5703125,18621.400390625,18623.978515625,18619.32421875,18622.109375,18625.50390625,18621.94921875,18619.62890625,18623.306640625,18620.607421875,18620.814453125,18617.650390625,18616.220703125,18620.984375,18620.375,18622.8671875,18616.123046875,18611.04296875,18610.931640625,18616.52734375,18613.705078125,18613.75390625,18637.818359375,18660.0234375,18674.90234375,18674.14453125,18688.09375,18676.9296875,18687.77734375,18707.515625,18748.09375,18779.890625,18801.9140625,18803.66015625,18795.123046875,18779.486328125,18762.337890625,18731.75,18692.955078125,18660.671875,18625.39453125,18604.0546875,18591.546875,18596.994140625,18594.1484375,18586.8203125,18583.142578125,18571.90625,18584.79296875,18578.990234375,18586.978515625,18587.185546875,18585.671875,18585.46484375,18620.544921875,18648.529296875,18715.455078125,18886.55078125,19184.669921875,19502.859375,19838.7109375,20101.296875,19810.0546875,19423.951171875,19085.97265625,19019.939453125,18917.345703125,18822.1171875,18741.42578125,18692.3828125,18668.892578125,18668.2578125,18647.80859375,18623.685546875,18616.392578125,18606.900390625,18608.783203125,18596.482421875,18592.365234375,18587.13671875,18589.763671875,18595.833984375,18588.884765625,18589.23828125,18592.537109375,18590.619140625,18593.587890625,18593.96484375,18603.919921875,18608.146484375,18609.455078125,18614.70703125,18605.705078125,18611.896484375,18610.236328125,18612.091796875,18617.98046875,18616.0390625,18621.021484375,18625.40625,18622.939453125,18630.220703125,18638.9296875,18632.67578125,18634.984375,18637.537109375,18644.046875,18653.953125,18653.111328125,18656.103515625,18662.39453125,18665.38671875,18668.990234375,18670.2734375,18670.48046875,18671.970703125,18686.4453125,18690.3046875,18701.580078125,18701.798828125,18704.169921875,18704.474609375,18722.80859375,18724.984375,18728.5625,18730.87109375,18734.2421875,18749.572265625,18743.84375,18747.740234375,18729.625,18725.58203125,18708.798828125,18692.11328125,18678.689453125,18656.873046875,18639.61328125,18622.1953125,18602.78515625,18586.1484375,18571.318359375,18557.50390625,18548.4765625,18543.689453125,18548.037109375,18538.7421875,18539.98828125,18535.8828125,18529.06640625,18530.740234375,18518.697265625,18527.955078125,18514.849609375,18524.890625,18525.927734375,18518.439453125,18521.8125,18522.8125,18528.126953125,18531.216796875,18531.83984375,18535.1875,18531.81640625,18539.572265625,18535.833984375,18535.650390625,18526.294921875,18533.134765625,18539.853515625,18527.0390625,18529.23828125,18531.693359375,18533.904296875,18536.15234375,18535.6875,18530.375,18523.986328125,18528.54296875,18528.8359375,18531.791015625,18529.8125,18520.6875,18522.263671875,18517.439453125,18519.41796875,18517.158203125,18506.591796875,18516.216796875,18514.884765625,18511.234375,18509.193359375,18505.626953125,18504.9921875,18505.064453125,18509.4140625,18504.771484375,18499.263671875,18502.90234375,18499.640625,18505.8828125,18495.37890625,18494.81640625,18492.5078125,18491.17578125,18494.03515625,18489.625,18497.6875,18495.060546875,18498.65234375,18497.822265625,18489.943359375,18499.287109375,18495.462890625,18502.87890625,18509.23046875,18527.7109375,18543.84765625,18547.669921875,18553.595703125,18557.89453125,18559.166015625,18580.50390625,18603.73828125,18644.53515625,18655.78515625,18687.435546875,18678.505859375,18670.46875,18646.197265625,18638.5625,18606.865234375,18563.48828125,18531.5234375,18500.837890625,18483.248046875,18486.1796875,18476.091796875,18473.818359375,18467.515625,18462.373046875,18470.826171875,18464.181640625,18461.982421875,18462.458984375,18471.669921875,18482.96875,18495.29296875,18529.5078125,18541.90625,18630.953125,18883.314453125,19212.337890625,19506.71875,19900.689453125,19878.1171875,19498.486328125,19078.9375,18938.318359375,18881.091796875,18759.736328125,18670.30859375,18613.119140625,18586.513671875,18572.33203125,18563.0625,18553.705078125,18540.548828125,18526.892578125,18520.1875,18519.392578125,18517.046875,18516.71875,18516.791015625,18517.890625,18513.919921875,18520.724609375,18527.2109375,18528.017578125,18528.505859375,18530.5703125,18536.15234375,18538.09375,18542.564453125,18544.25,18551.8125,18558.787109375,18556.966796875,18562.537109375,18563.16015625,18567.666015625,18575.30078125,18574.189453125,18583.6796875,18586.294921875,18588.95703125,18597.04296875,18605.607421875,18606.08203125,18608.6484375,18617.4296875,18621.15625,18633.701171875,18637.78125,18641.53125,18643.25390625,18655.626953125,18658.828125,18672.263671875,18675.8671875,18685.65234375,18685.517578125,18692.443359375,18701.04296875,18708.724609375,18716.482421875,18720.5859375,18728.0625,18733.607421875,18744.8828125,18753.06640625,18751.9296875,18753.2734375,18754.41015625,18749.328125,18741.1328125,18723.67578125,18706.80859375,18691.513671875,18674.73046875,18655.552734375,18639.1484375,18630.904296875,18613.08203125,18612.30078125,18600.09765625,18592.376953125,18588.06640625,18582.826171875,18582.642578125,18581.115234375,18578.416015625,18581.73828125,18575.056640625,18576.4609375,18574.947265625,18577.634765625,18575.984375,18583.75390625,18593.123046875,18591.509765625,18595.11328125,18597.703125,18603.96875,18603.9453125,18607.439453125,18606.0703125,18599.302734375,18609.173828125,18618.982421875,18619.53125,18617.87109375,18617.7109375,18616.84375,18616.880859375,18624.576171875,18619.7265625,18620.619140625,18630.330078125,18634.654296875,18632.39453125,18630.46484375,18630.341796875,18631.84375,18623.96484375,18633.126953125,18633.041015625,18630.48828125,18629.658203125,18630.46484375,18632.380859375,18629.548828125,18631.35546875,18628.498046875,18632.69921875,18638.6484375,18640.1875,18638.390625,18633.224609375,18632.1015625,18633.75,18628.435546875,18632.833984375,18631.44140625,18629.376953125,18636.107421875,18639.111328125,18642.373046875,18640.029296875,18641.17578125,18639.52734375,18648.591796875,18656.470703125,18674.40234375,18699.759765625,18716.701171875,18714.283203125,18723.45703125,18714.564453125,18732.923828125,18754.470703125,18801.388671875,18811.52734375,18837.056640625,18841.24609375,18831.828125,18814.921875,18796.869140625,18765.18359375,18730.994140625,18699.013671875,18671.482421875,18651.05859375,18644.291015625,18643.998046875,18635.923828125,18637.42578125,18627.1171875,18627.177734375,18632.650390625,18635.423828125,18639.650390625,18645.072265625,18638.29296875,18647.9921875,18680.3125,18707.845703125,18765.646484375,18949.923828125,19253.294921875,19577.982421875,19913.625,20204.5859375,19933.1328125,19532.833984375,19197.3984375,19119.822265625,18978.322265625,18878.001953125,18810.01171875,18754.287109375,18740.447265625,18734.474609375,18718.974609375,18705.5,18697.169921875,18689.939453125,18683.74609375,18675.158203125,18677.662109375,18669.02734375,18676.111328125,18680.912109375,18677.13671875,18677.7734375,18672.435546875,18683.501953125,18692.30859375,18700.296875,18703.205078125,18702.568359375,18703.974609375,18713.96484375,18719.486328125,18726.083984375,18723.298828125,18726.376953125,18728.6484375,18738.798828125,18740.38671875,18739.373046875,18743.96484375,18746.310546875,18758.416015625,18758.4765625,18765.794921875,18762.826171875,18768.76171875,18772.560546875,18781.05078125,18788.94140625,18795.1953125,18802.732421875,18808.216796875,18819.58984375,18816.9140625,18817.720703125,18822.349609375,18827.943359375,18839.21875,18840.1953125,18848.587890625,18844.005859375,18853.94921875,18864.662109375,18866.99609375,18877.3046875,18882.056640625,18889.080078125,18899.3046875,18893.1484375,18883.693359375,18870.20703125,18847.732421875,18832.744140625,18814.421875,18803.09765625,18785.6796875,18767.2109375,18752.822265625,18739.189453125,18722.845703125,18720.927734375,18709.82421875,18707.80859375,18698.09765625,18698.708984375,18694.494140625,18692.943359375,18693.994140625,18695.01953125,18687.8125,18684.515625,18683.513671875,18681.08203125,18684.650390625,18683.427734375,18678.591796875,18678.15234375,18684.576171875,18688.607421875,18691.26953125,18694.21484375,18698.34375,18705.060546875,18704.365234375,18701.287109375,18691.220703125,18694.666015625,18702.2265625,18707.150390625,18701.62890625,18703.107421875,18707.443359375,18700.56640625,18708.2734375,18711.681640625,18709.99609375,18707.431640625,18707.9921875,18708.236328125,18709.005859375,18707.455078125,18695.49609375,18705.439453125,18707.162109375,18711.216796875,18707.50390625,18702.97265625,18699.478515625,18701.666015625,18701.103515625,18696.021484375,18695.01953125,18695.802734375,18698.146484375,18695.984375,18690.87890625,18686.884765625,18691.576171875,18684.271484375,18686.23828125,18684.02734375,18683.07421875,18678.76171875,18685.87109375,18687.751953125,18689.486328125,18692.724609375,18687.8984375,18689.302734375,18686.873046875,18691.416015625,18684.087890625,18684.52734375,18688.130859375,18687.458984375,18686.482421875,18689.302734375,18686.189453125,18687.88671875,18688.3515625,18700.919921875,18718.400390625,18731.65234375,18742.57421875,18747.60546875,18759.931640625,18750.01171875,18770.068359375,18794.669921875,18846.42578125,18853.27734375,18873.34765625,18864.34375,18851.91015625,18840.07421875,18831.888671875,18797.650390625,18759.736328125,18730.00390625,18698.7578125,18684.125,18670.65234375,18665.521484375,18662.13671875,18658.44921875,18659.4140625,18664.177734375,18660.1953125,18660.8671875,18654.576171875,18662.33203125,18662.8828125,18676.013671875,18717.2265625,18737.564453125,18841.1484375,19107.521484375,19433.185546875,19750.408203125,20127.900390625,20168.40625,19779.37109375,19401.681640625,19172.78515625,19078.205078125,18937.634765625,18861.2421875,18791.470703125,18758.123046875,18749.05859375,18732.166015625,18723.103515625,18714.02734375,18697.548828125,18692.78515625,18691.6484375,18690.744140625,18684.943359375,18684.24609375,18687.349609375,18683.416015625,18687.7890625,18688.607421875,18691.099609375,18691.501953125,18695.10546875,18699.98046875,18702.654296875,18707.50390625,18712.23046875,18720.29296875,18720.94140625,18720.123046875,18729.015625,18728.453125,18734.79296875,18737.96875,18737.833984375,18751.6484375,18751.380859375,18752.19921875,18756.25390625,18753.0546875,18754.32421875,18761.921875,18766.52734375,18775.015625,18782.58984375,18784.568359375,18783.640625,18792.056640625,18803.197265625,18813.5546875,18815.337890625,18817.1328125,18822.484375,18831.693359375,18839.669921875,18848.74609375,18852.056640625,18858.591796875,18862.12109375,18869.181640625,18872.19921875,18881.775390625,18885.26953125,18892.96484375,18892.87890625,18893.892578125,18890.693359375,18881.275390625,18867.03125,18848.4765625,18826.466796875,18810.28125,18789.02734375,18776.580078125,18760.19921875,18746.921875,18738.982421875,18722.11328125,18719.4140625,18716.1640625,18715.712890625,18703.802734375,18697.42578125,18700.455078125,18701.6171875,18699.869140625,18696.095703125,18690.134765625,18686.62890625,18687.59375,18694.568359375,18697.537109375,18695.27734375,18700.65234375,18699.587890625,18709.947265625,18705.94140625,18703.791015625,18706.697265625,18701.091796875,18704.5234375,18706.599609375,18708.029296875,18709.068359375,18709.677734375,18713.84375,18712.255859375,18715.443359375,18716.140625,18713.44140625,18719.658203125,18720.85546875,18712.1953125,18709.677734375,18702.142578125,18710.349609375,18709.04296875,18710.08203125,18710.65625,18706.783203125,18701.873046875,18707.80859375,18710.166015625,18705.525390625,18705.85546875,18699.455078125,18708.884765625,18703.16796875,18699.685546875,18696.42578125,18698.916015625,18703.033203125,18699.9921875,18695.65625,18696.205078125,18696.486328125,18698.244140625,18699.259765625,18685.896484375,18688.2890625,18691.33203125,18690.048828125,18690.353515625,18689.71875,18692.125,18695.814453125,18689.572265625,18695.642578125,18695.607421875,18692.48046875,18687.080078125,18685.46875,18689.33984375,18693.37109375,18692.6875,18691.794921875,18689.681640625,18686.71484375,18681.92578125,18693.45703125,18709.080078125,18734.14453125,18753.65234375,18746.23828125,18756.400390625,18750.5625,18762.875,18783.712890625,18824.5,18850.833984375,18869.20703125,18872.822265625,18857.08984375,18841.404296875,18828.775390625,18800.228515625,18762.349609375,18728.611328125,18697.0234375,18682.1328125,18666.55859375,18660.427734375,18656.201171875,18657.38671875,18658.716796875,18657.6171875,18664.04296875,18665.5703125,18661.34375,18656.0546875,18653.892578125,18666.73046875,18703.2890625,18728.16015625,18806.3359375,19028.025390625,19341.5,19664.8671875,20022.27734375,20198.736328125,19866.59765625,19493.83203125,19190.119140625,19119.2109375,18976.771484375,18883.66796875,18810.220703125,18765.048828125,18748.65625,18737.7734375,18721.13671875,18703.130859375,18696.828125,18683.611328125,